"Time","ec"
1437721200005,85
1437721200013,635
1437721200021,503
1437721200029,5
1437721200037,-217
1437721200045,-310
1437721200052,-376
1437721200060,-413
1437721200068,-420
1437721200076,-432
1437721200084,-437
1437721200092,-442
1437721200100,-437
1437721200107,-442
1437721200115,-439
1437721200123,-432
1437721200131,-444
1437721200139,-437
1437721200147,-415
1437721200155,-454
1437721200163,-479
1437721200170,-454
1437721200178,-449
1437721200186,-457
1437721200194,-464
1437721200202,-459
1437721200210,-464
1437721200218,-466
1437721200226,-464
1437721200233,-452
1437721200241,-452
1437721200249,-442
1437721200257,-425
1437721200265,-430
1437721200273,-425
1437721200281,-422
1437721200289,-469
1437721200296,-452
1437721200304,-430
1437721200312,-444
1437721200320,-408
1437721200328,-403
1437721200336,-422
1437721200344,-417
1437721200351,-400
1437721200359,-398
1437721200367,-413
1437721200375,-432
1437721200383,-432
1437721200391,-422
1437721200399,-403
1437721200407,-388
1437721200414,-374
1437721200422,-386
1437721200430,-378
1437721200438,-356
1437721200446,-359
1437721200454,-369
1437721200462,-366
1437721200470,-356
1437721200477,-383
1437721200485,-378
1437721200493,-371
1437721200501,-398
1437721200509,-398
1437721200517,-405
1437721200525,-398
1437721200532,-400
1437721200540,-393
1437721200548,-388
1437721200556,-393
1437721200564,-391
1437721200572,-371
1437721200580,-369
1437721200588,-378
1437721200595,-376
1437721200603,-366
1437721200611,-356
1437721200619,-354
1437721200627,-342
1437721200635,-349
1437721200643,-354
1437721200651,-347
1437721200658,-354
1437721200666,-347
1437721200674,-344
1437721200682,-354
1437721200690,-359
1437721200698,-374
1437721200706,-356
1437721200714,-342
1437721200722,-337
1437721200729,-325
1437721200737,-322
1437721200745,-330
1437721200753,-327
1437721200761,-317
1437721200769,-300
1437721200777,-317
1437721200785,-317
1437721200793,-303
1437721200800,-313
1437721200808,-332
1437721200816,-381
1437721200824,-444
1437721200832,-376
1437721200840,59
1437721200848,654
1437721200856,630
1437721200864,161
1437721200871,-76
1437721200879,-188
1437721200887,-269
1437721200895,-308
1437721200903,-322
1437721200911,-322
1437721200919,-325
1437721200927,-344
1437721200935,-339
1437721200942,-315
1437721200950,-322
1437721200958,-327
1437721200966,-320
1437721200974,-332
1437721200982,-327
1437721200990,-317
1437721200998,-320
1437721201006,-310
1437721201013,-298
1437721201021,-300
1437721201029,-334
1437721201037,-303
1437721201045,-276
1437721201053,-305
1437721201061,-310
1437721201069,-303
1437721201077,-313
1437721201085,-317
1437721201092,-300
1437721201100,-283
1437721201108,-286
1437721201116,-278
1437721201124,-259
1437721201132,-286
1437721201140,-266
1437721201148,-264
1437721201156,-269
1437721201163,-232
1437721201171,-249
1437721201179,-237
1437721201187,-227
1437721201195,-232
1437721201203,-222
1437721201211,-244
1437721201219,-215
1437721201227,-200
1437721201234,-251
1437721201242,-259
1437721201250,-232
1437721201258,-227
1437721201266,-217
1437721201274,-215
1437721201282,-195
1437721201290,-215
1437721201298,-237
1437721201305,-212
1437721201313,-208
1437721201321,-190
1437721201329,-212
1437721201337,-227
1437721201345,-222
1437721201353,-215
1437721201361,-190
1437721201369,-222
1437721201376,-225
1437721201384,-193
1437721201392,-227
1437721201400,-251
1437721201408,-222
1437721201416,-244
1437721201424,-244
1437721201432,-215
1437721201440,-225
1437721201447,-234
1437721201455,-222
1437721201463,-217
1437721201471,-232
1437721201479,-212
1437721201487,-200
1437721201495,-229
1437721201503,-229
1437721201511,-200
1437721201518,-190
1437721201526,-205
1437721201534,-208
1437721201542,-188
1437721201550,-188
1437721201558,-171
1437721201566,-164
1437721201574,-159
1437721201581,-171
1437721201589,-208
1437721201597,-188
1437721201605,-176
1437721201613,-176
1437721201621,-266
1437721201629,-371
1437721201637,-205
1437721201644,410
1437721201652,989
1437721201660,713
1437721201668,205
1437721201676,20
1437721201684,-100
1437721201692,-166
1437721201699,-188
1437721201707,-239
1437721201715,-256
1437721201723,-212
1437721201731,-212
1437721201739,-232
1437721201747,-217
1437721201755,-222
1437721201762,-254
1437721201770,-234
1437721201778,-215
1437721201786,-176
1437721201794,-220
1437721201802,-208
1437721201810,-159
1437721201818,-225
1437721201825,-200
1437721201833,-168
1437721201841,-200
1437721201849,-183
1437721201857,-193
1437721201865,-217
1437721201873,-195
1437721201881,-186
1437721201888,-173
1437721201896,-159
1437721201904,-166
1437721201912,-134
1437721201920,-161
1437721201928,-210
1437721201936,-156
1437721201943,-139
1437721201951,-178
1437721201959,-154
1437721201967,-129
1437721201975,-156
1437721201983,-181
1437721201991,-161
1437721201999,-151
1437721202006,-176
1437721202014,-166
1437721202022,-127
1437721202030,-149
1437721202038,-164
1437721202046,-125
1437721202054,-146
1437721202062,-139
1437721202069,-120
1437721202077,-122
1437721202085,-83
1437721202093,-100
1437721202101,-105
1437721202109,-81
1437721202117,-110
1437721202124,-125
1437721202132,-98
1437721202140,-107
1437721202148,-100
1437721202156,-100
1437721202164,-117
1437721202172,-103
1437721202180,-125
1437721202187,-105
1437721202195,-85
1437721202203,-110
1437721202211,-110
1437721202219,-103
1437721202227,-117
1437721202235,-122
1437721202243,-110
1437721202250,-90
1437721202258,-95
1437721202266,-110
1437721202274,-93
1437721202282,-110
1437721202290,-122
1437721202298,-85
1437721202306,-98
1437721202313,-103
1437721202321,-110
1437721202329,-88
1437721202337,-61
1437721202345,-90
1437721202353,-95
1437721202360,-105
1437721202368,-105
1437721202376,-73
1437721202384,-81
1437721202392,-110
1437721202400,-95
1437721202407,-117
1437721202415,-237
1437721202423,-212
1437721202431,244
1437721202439,1001
1437721202447,1221
1437721202454,688
1437721202462,217
1437721202470,42
1437721202478,-34
1437721202486,-95
1437721202494,-120
1437721202502,-105
1437721202509,-117
1437721202517,-127
1437721202525,-107
1437721202533,-122
1437721202541,-129
1437721202549,-90
1437721202556,-120
1437721202564,-159
1437721202572,-132
1437721202580,-81
1437721202588,-117
1437721202596,-166
1437721202603,-144
1437721202611,-125
1437721202619,-107
1437721202627,-122
1437721202635,-134
1437721202643,-132
1437721202650,-127
1437721202658,-127
1437721202666,-125
1437721202674,-132
1437721202682,-117
1437721202690,-105
1437721202698,-110
1437721202705,-78
1437721202713,-68
1437721202721,-117
1437721202729,-112
1437721202737,-59
1437721202745,-49
1437721202752,-76
1437721202760,-78
1437721202768,-63
1437721202776,-63
1437721202784,-68
1437721202792,-66
1437721202799,-32
1437721202807,-54
1437721202815,-59
1437721202823,-37
1437721202831,-59
1437721202839,-51
1437721202846,-56
1437721202854,-63
1437721202862,-24
1437721202870,-24
1437721202878,-42
1437721202886,-49
1437721202894,-22
1437721202901,-49
1437721202909,-78
1437721202917,-61
1437721202925,-61
1437721202933,-56
1437721202941,-49
1437721202948,-37
1437721202956,-37
1437721202964,-22
1437721202972,-37
1437721202980,-39
1437721202988,-34
1437721202995,-27
1437721203003,-27
1437721203011,-34
1437721203019,-44
1437721203027,-51
1437721203035,-56
1437721203042,-46
1437721203050,-37
1437721203058,-51
1437721203066,-61
1437721203073,-59
1437721203081,-44
1437721203089,-56
1437721203096,-49
1437721203104,-42
1437721203112,-34
1437721203120,-39
1437721203128,-37
1437721203136,-37
1437721203143,-34
1437721203151,-5
1437721203159,-17
1437721203167,-20
1437721203175,-37
1437721203183,-44
1437721203190,-34
1437721203198,-17
1437721203206,-17
1437721203214,-34
1437721203222,-29
1437721203230,-34
1437721203237,-71
1437721203245,-171
1437721203253,-186
1437721203261,171
1437721203269,869
1437721203277,1270
1437721203284,847
1437721203292,347
1437721203300,132
1437721203308,-20
1437721203316,-29
1437721203324,-44
1437721203331,-88
1437721203339,-98
1437721203347,-81
1437721203355,-78
1437721203363,-76
1437721203371,-71
1437721203378,-78
1437721203386,-59
1437721203394,-71
1437721203402,-127
1437721203410,-134
1437721203418,-103
1437721203425,-95
1437721203433,-95
1437721203441,-85
1437721203449,-76
1437721203457,-88
1437721203465,-122
1437721203472,-103
1437721203480,-103
1437721203488,-125
1437721203496,-105
1437721203504,-105
1437721203511,-105
1437721203519,-105
1437721203527,-95
1437721203535,-88
1437721203543,-93
1437721203551,-83
1437721203558,-61
1437721203566,-44
1437721203574,-51
1437721203582,-42
1437721203590,-27
1437721203598,-56
1437721203605,-63
1437721203613,-29
1437721203621,-29
1437721203629,-39
1437721203637,-37
1437721203645,-71
1437721203652,-54
1437721203660,-39
1437721203668,-61
1437721203676,-27
1437721203684,-61
1437721203692,-44
1437721203699,-20
1437721203707,-54
1437721203715,-32
1437721203723,0
1437721203731,-27
1437721203739,-63
1437721203746,-34
1437721203754,-22
1437721203762,-20
1437721203770,-22
1437721203778,-15
1437721203786,-22
1437721203793,-49
1437721203801,-44
1437721203809,-27
1437721203817,-44
1437721203825,-63
1437721203833,-39
1437721203840,-34
1437721203848,-61
1437721203856,-61
1437721203864,-34
1437721203872,-51
1437721203880,-46
1437721203888,-39
1437721203896,-44
1437721203903,-39
1437721203911,-44
1437721203919,-44
1437721203927,-42
1437721203935,-37
1437721203943,-39
1437721203951,-44
1437721203959,-12
1437721203967,-24
1437721203974,-61
1437721203982,-32
1437721203990,-37
1437721203998,-29
1437721204006,-34
1437721204014,-51
1437721204022,-42
1437721204030,-49
1437721204038,-32
1437721204045,-22
1437721204053,-22
1437721204061,-15
1437721204069,-22
1437721204077,-39
1437721204085,-7
1437721204093,-51
1437721204101,-66
1437721204109,-12
1437721204116,-22
1437721204124,-54
1437721204132,-42
1437721204140,-49
1437721204148,-149
1437721204156,-183
1437721204164,112
1437721204172,725
1437721204180,1101
1437721204187,754
1437721204195,271
1437721204203,107
1437721204211,5
1437721204219,-68
1437721204227,-88
1437721204235,-83
1437721204243,-54
1437721204251,-63
1437721204259,-112
1437721204266,-100
1437721204274,-81
1437721204282,-73
1437721204290,-95
1437721204298,-107
1437721204306,-95
1437721204314,-100
1437721204322,-103
1437721204330,-98
1437721204337,-83
1437721204345,-83
1437721204353,-105
1437721204361,-95
1437721204369,-95
1437721204377,-100
1437721204385,-98
1437721204393,-100
1437721204401,-95
1437721204408,-105
1437721204416,-100
1437721204424,-95
1437721204432,-73
1437721204440,-88
1437721204448,-117
1437721204456,-95
1437721204464,-71
1437721204472,-85
1437721204479,-90
1437721204487,-66
1437721204495,-59
1437721204503,-68
1437721204511,-44
1437721204519,-56
1437721204527,-51
1437721204535,-49
1437721204543,-78
1437721204550,-68
1437721204558,-51
1437721204566,-49
1437721204574,-66
1437721204582,-51
1437721204590,-61
1437721204598,-83
1437721204606,-49
1437721204614,-51
1437721204621,-83
1437721204629,-61
1437721204637,-51
1437721204645,-68
1437721204653,-49
1437721204660,-68
1437721204668,-85
1437721204676,-49
1437721204684,-49
1437721204691,-61
1437721204699,-61
1437721204707,-49
1437721204715,-66
1437721204723,-73
1437721204731,-46
1437721204739,-51
1437721204747,-93
1437721204754,-93
1437721204762,-66
1437721204770,-63
1437721204778,-56
1437721204786,-56
1437721204794,-56
1437721204802,-44
1437721204810,-44
1437721204817,-27
1437721204825,-32
1437721204833,-32
1437721204841,-24
1437721204849,-42
1437721204857,-59
1437721204865,-49
1437721204872,-39
1437721204880,-42
1437721204888,-51
1437721204896,-76
1437721204904,-51
1437721204912,-32
1437721204920,-59
1437721204928,-71
1437721204935,-46
1437721204943,-32
1437721204951,-29
1437721204959,-29
1437721204967,-12
1437721204975,-12
1437721204983,-32
1437721204991,-34
1437721204998,-22
1437721205006,-42
1437721205014,-39
1437721205022,-22
1437721205030,-29
1437721205038,-32
1437721205046,-88
1437721205054,-183
1437721205061,-112
1437721205069,403
1437721205077,1079
1437721205085,1023
1437721205093,493
1437721205101,190
1437721205109,39
1437721205116,0
1437721205124,-66
1437721205132,-105
1437721205140,-66
1437721205148,-66
1437721205156,-59
1437721205164,-61
1437721205172,-56
1437721205179,-51
1437721205187,-39
1437721205195,-27
1437721205203,-34
1437721205211,-61
1437721205219,-61
1437721205227,-61
1437721205235,-49
1437721205242,-39
1437721205250,-46
1437721205258,-44
1437721205266,-27
1437721205274,-39
1437721205282,-71
1437721205290,-68
1437721205297,-49
1437721205305,-54
1437721205313,-59
1437721205321,-49
1437721205329,-56
1437721205337,-44
1437721205345,-61
1437721205353,-73
1437721205360,-46
1437721205368,-44
1437721205376,-49
1437721205384,-44
1437721205392,-34
1437721205400,-32
1437721205408,-20
1437721205416,-17
1437721205423,-29
1437721205431,-22
1437721205439,-22
1437721205447,-17
1437721205455,-12
1437721205463,-12
1437721205471,-5
1437721205479,-20
1437721205486,-10
1437721205494,-7
1437721205502,-5
1437721205510,10
1437721205518,-17
1437721205526,-22
1437721205534,-12
1437721205542,-17
1437721205549,-20
1437721205557,-29
1437721205565,-22
1437721205573,-20
1437721205581,-37
1437721205589,-39
1437721205597,-29
1437721205605,-32
1437721205612,-27
1437721205620,-24
1437721205628,-27
1437721205636,-12
1437721205644,-24
1437721205652,-37
1437721205660,-27
1437721205667,-24
1437721205675,-39
1437721205683,-24
1437721205691,-22
1437721205699,-34
1437721205707,-20
1437721205715,-27
1437721205723,-27
1437721205730,-10
1437721205738,-12
1437721205746,-12
1437721205754,-15
1437721205762,-22
1437721205770,-20
1437721205778,-12
1437721205786,5
1437721205793,-5
1437721205801,2
1437721205809,2
1437721205817,-5
1437721205825,0
1437721205833,-12
1437721205841,-17
1437721205849,-22
1437721205856,0
1437721205864,15
1437721205872,22
1437721205880,24
1437721205888,27
1437721205896,32
1437721205904,32
1437721205911,27
1437721205919,20
1437721205927,12
1437721205935,24
1437721205943,34
1437721205951,42
1437721205959,37
1437721205967,-54
1437721205974,-132
1437721205982,-7
1437721205990,552
1437721205998,1230
1437721206006,1130
1437721206014,540
1437721206022,242
1437721206030,125
1437721206037,22
1437721206045,-17
1437721206053,-17
1437721206061,-29
1437721206069,-56
1437721206077,-39
1437721206085,-39
1437721206092,-61
1437721206100,-63
1437721206108,-66
1437721206116,-59
1437721206124,-59
1437721206132,-54
1437721206140,-51
1437721206148,-56
1437721206155,-66
1437721206163,-59
1437721206171,-44
1437721206179,-51
1437721206187,-63
1437721206195,-49
1437721206203,-27
1437721206211,-46
1437721206218,-49
1437721206226,-39
1437721206234,-34
1437721206242,-22
1437721206250,-24
1437721206258,-29
1437721206266,-39
1437721206274,-34
1437721206281,-15
1437721206289,-15
1437721206297,-5
1437721206305,5
1437721206313,0
1437721206321,-5
1437721206329,0
1437721206337,0
1437721206344,0
1437721206352,5
1437721206360,-2
1437721206368,-24
1437721206376,-10
1437721206384,-2
1437721206392,-2
1437721206400,2
1437721206407,5
1437721206415,12
1437721206423,5
1437721206431,2
1437721206439,10
1437721206447,12
1437721206455,22
1437721206462,32
1437721206470,32
1437721206478,34
1437721206486,29
1437721206494,27
1437721206502,12
1437721206510,5
1437721206518,22
1437721206525,15
1437721206533,12
1437721206541,12
1437721206549,12
1437721206557,10
1437721206565,10
1437721206573,22
1437721206581,12
1437721206588,20
1437721206596,22
1437721206604,17
1437721206612,15
1437721206620,5
1437721206628,22
1437721206636,27
1437721206644,20
1437721206651,34
1437721206659,27
1437721206667,12
1437721206675,24
1437721206683,15
1437721206691,5
1437721206699,12
1437721206706,12
1437721206714,5
1437721206722,-2
1437721206730,-12
1437721206738,-15
1437721206746,-7
1437721206754,-7
1437721206762,-24
1437721206769,-22
1437721206777,-29
1437721206785,-27
1437721206793,-24
1437721206801,-27
1437721206809,-17
1437721206817,-10
1437721206825,-7
1437721206832,-5
1437721206840,0
1437721206848,-10
1437721206856,-15
1437721206864,-15
1437721206872,-12
1437721206880,-17
1437721206887,-15
1437721206895,-20
1437721206903,-22
1437721206911,-81
1437721206919,-154
1437721206927,-83
1437721206935,322
1437721206943,894
1437721206950,864
1437721206958,403
1437721206966,171
1437721206974,73
1437721206982,2
1437721206990,-39
1437721206998,-54
1437721207006,-63
1437721207013,-66
1437721207021,-61
1437721207029,-59
1437721207037,-59
1437721207045,-66
1437721207053,-78
1437721207061,-76
1437721207069,-71
1437721207076,-71
1437721207084,-68
1437721207092,-66
1437721207100,-54
1437721207108,-49
1437721207116,-44
1437721207124,-46
1437721207131,-51
1437721207139,-46
1437721207147,-54
1437721207155,-56
1437721207163,-51
1437721207171,-54
1437721207179,-49
1437721207186,-56
1437721207194,-54
1437721207202,-46
1437721207210,-39
1437721207218,-34
1437721207226,-29
1437721207234,-22
1437721207242,-7
1437721207249,-5
1437721207257,0
1437721207265,0
1437721207273,5
1437721207281,5
1437721207289,5
1437721207297,0
1437721207304,0
1437721207312,5
1437721207320,7
1437721207328,2
1437721207336,0
1437721207344,15
1437721207352,22
1437721207359,29
1437721207367,39
1437721207375,44
1437721207383,44
1437721207391,39
1437721207399,49
1437721207407,56
1437721207414,54
1437721207422,49
1437721207430,39
1437721207438,39
1437721207446,42
1437721207454,49
1437721207462,54
1437721207469,56
1437721207477,51
1437721207485,59
1437721207493,61
1437721207501,61
1437721207509,66
1437721207517,66
1437721207524,71
1437721207532,78
1437721207540,83
1437721207548,78
1437721207556,78
1437721207564,78
1437721207572,73
1437721207579,71
1437721207587,61
1437721207595,66
1437721207603,54
1437721207611,56
1437721207619,56
1437721207627,56
1437721207635,71
1437721207642,61
1437721207650,61
1437721207658,59
1437721207666,68
1437721207674,61
1437721207682,44
1437721207690,44
1437721207697,32
1437721207705,17
1437721207713,22
1437721207721,34
1437721207729,59
1437721207737,63
1437721207745,76
1437721207752,83
1437721207760,88
1437721207768,95
1437721207776,105
1437721207784,110
1437721207792,120
1437721207800,122
1437721207807,110
1437721207815,105
1437721207823,46
1437721207831,-56
1437721207839,-27
1437721207847,342
1437721207855,959
1437721207862,994
1437721207870,542
1437721207878,286
1437721207886,183
1437721207894,129
1437721207902,83
1437721207909,71
1437721207917,71
1437721207925,73
1437721207933,73
1437721207941,98
1437721207948,110
1437721207956,115
1437721207964,122
1437721207972,137
1437721207980,137
1437721207988,132
1437721207995,129
1437721208003,132
1437721208011,132
1437721208019,139
1437721208027,171
1437721208035,183
1437721208042,166
1437721208050,159
1437721208058,154
1437721208066,156
1437721208074,159
1437721208081,166
1437721208089,176
1437721208097,171
1437721208105,171
1437721208113,178
1437721208121,181
1437721208128,178
1437721208136,183
1437721208144,193
1437721208152,198
1437721208160,193
1437721208167,178
1437721208175,173
1437721208183,173
1437721208191,166
1437721208199,171
1437721208207,166
1437721208214,156
1437721208222,166
1437721208230,164
1437721208238,151
1437721208246,154
1437721208253,164
1437721208261,161
1437721208269,173
1437721208277,166
1437721208285,176
1437721208293,183
1437721208300,183
1437721208308,178
1437721208316,171
1437721208324,164
1437721208332,166
1437721208339,164
1437721208347,154
1437721208355,154
1437721208363,159
1437721208371,159
1437721208379,149
1437721208386,154
1437721208394,154
1437721208402,156
1437721208410,164
1437721208418,168
1437721208426,166
1437721208433,166
1437721208441,156
1437721208449,164
1437721208457,166
1437721208465,164
1437721208472,171
1437721208480,171
1437721208488,176
1437721208496,186
1437721208504,193
1437721208512,188
1437721208519,190
1437721208527,188
1437721208535,193
1437721208543,195
1437721208551,193
1437721208558,186
1437721208566,188
1437721208574,188
1437721208582,188
1437721208590,195
1437721208598,205
1437721208605,215
1437721208613,215
1437721208621,215
1437721208629,225
1437721208637,215
1437721208645,210
1437721208653,220
1437721208660,215
1437721208668,200
1437721208676,193
1437721208684,186
1437721208692,88
1437721208700,61
1437721208708,320
1437721208715,940
1437721208723,1284
1437721208731,903
1437721208739,505
1437721208747,337
1437721208755,247
1437721208763,200
1437721208770,166
1437721208778,171
1437721208786,166
1437721208794,173
1437721208802,176
1437721208810,166
1437721208818,161
1437721208826,154
1437721208833,154
1437721208841,149
1437721208849,144
1437721208857,139
1437721208865,139
1437721208873,134
1437721208881,132
1437721208888,125
1437721208896,127
1437721208904,112
1437721208912,103
1437721208920,105
1437721208928,98
1437721208936,93
1437721208943,88
1437721208951,90
1437721208959,90
1437721208967,98
1437721208975,100
1437721208983,88
1437721208991,100
1437721208998,93
1437721209006,100
1437721209014,115
1437721209022,107
1437721209030,110
1437721209038,103
1437721209046,100
1437721209053,105
1437721209061,100
1437721209069,88
1437721209077,88
1437721209085,95
1437721209093,93
1437721209101,98
1437721209108,85
1437721209116,85
1437721209124,93
1437721209132,71
1437721209140,68
1437721209148,73
1437721209156,76
1437721209163,81
1437721209171,66
1437721209179,78
1437721209187,85
1437721209195,83
1437721209203,95
1437721209211,100
1437721209219,98
1437721209226,100
1437721209234,100
1437721209242,90
1437721209250,95
1437721209258,88
1437721209266,83
1437721209274,90
1437721209281,83
1437721209289,88
1437721209297,88
1437721209305,100
1437721209313,88
1437721209321,73
1437721209329,107
1437721209336,90
1437721209344,98
1437721209352,103
1437721209360,90
1437721209368,93
1437721209376,78
1437721209384,95
1437721209391,88
1437721209399,78
1437721209407,83
1437721209415,83
1437721209423,95
1437721209431,85
1437721209439,83
1437721209447,90
1437721209454,95
1437721209462,103
1437721209470,107
1437721209478,100
1437721209486,90
1437721209494,85
1437721209502,78
1437721209510,61
1437721209517,56
1437721209525,49
1437721209533,46
1437721209541,37
1437721209549,34
1437721209557,12
1437721209565,-81
1437721209573,-93
1437721209580,129
1437721209588,669
1437721209596,991
1437721209604,652
1437721209612,281
1437721209620,144
1437721209628,66
1437721209635,15
1437721209643,-17
1437721209651,-20
1437721209659,-15
1437721209667,-12
1437721209675,-5
1437721209683,0
1437721209691,-7
1437721209698,-12
1437721209706,-5
1437721209714,-5
1437721209722,-5
1437721209730,-5
1437721209738,-10
1437721209746,-12
1437721209754,-10
1437721209761,-12
1437721209769,-10
1437721209777,-15
1437721209785,-10
1437721209793,-5
1437721209801,-5
1437721209809,-12
1437721209817,-10
1437721209824,-17
1437721209832,-12
1437721209840,2
1437721209848,5
1437721209856,5
1437721209864,0
1437721209872,5
1437721209879,2
1437721209887,-5
1437721209895,-7
1437721209903,-15
1437721209911,-10
1437721209919,-7
1437721209927,-12
1437721209935,-12
1437721209942,-17
1437721209950,-20
1437721209958,-24
1437721209966,-29
1437721209974,-39
1437721209982,-44
1437721209990,-37
1437721209998,-39
1437721210005,-39
1437721210013,-42
1437721210021,-46
1437721210029,-46
1437721210037,-44
1437721210045,-39
1437721210053,-34
1437721210060,-34
1437721210068,-37
1437721210076,-24
1437721210084,-20
1437721210092,-20
1437721210100,-24
1437721210108,-24
1437721210116,-27
1437721210123,-34
1437721210131,-27
1437721210139,-42
1437721210147,-46
1437721210155,-49
1437721210163,-49
1437721210171,-46
1437721210179,-54
1437721210186,-49
1437721210194,-56
1437721210202,-46
1437721210210,-42
1437721210218,-44
1437721210226,-46
1437721210234,-49
1437721210242,-54
1437721210250,-56
1437721210257,-44
1437721210265,-59
1437721210273,-71
1437721210281,-61
1437721210289,-71
1437721210297,-71
1437721210305,-71
1437721210313,-61
1437721210320,-59
1437721210328,-71
1437721210336,-76
1437721210344,-81
1437721210352,-68
1437721210360,-61
1437721210368,-63
1437721210376,-56
1437721210383,-54
1437721210391,-61
1437721210399,-146
1437721210407,-215
1437721210415,-66
1437721210423,454
1437721210431,923
1437721210439,691
1437721210447,264
1437721210454,81
1437721210462,12
1437721210470,-17
1437721210478,-59
1437721210486,-76
1437721210494,-88
1437721210502,-76
1437721210510,-73
1437721210517,-51
1437721210525,-49
1437721210533,-56
1437721210541,-61
1437721210549,-68
1437721210557,-56
1437721210565,-44
1437721210573,-32
1437721210580,-32
1437721210588,-24
1437721210596,-7
1437721210604,-7
1437721210612,-12
1437721210620,-12
1437721210628,-2
1437721210636,-5
1437721210644,-2
1437721210651,-7
1437721210659,0
1437721210667,5
1437721210675,22
1437721210683,42
1437721210691,46
1437721210699,39
1437721210707,34
1437721210714,39
1437721210722,37
1437721210730,24
1437721210738,27
1437721210746,15
1437721210754,7
1437721210762,5
1437721210770,-7
1437721210777,-5
1437721210785,-2
1437721210793,-2
1437721210801,-10
1437721210809,-12
1437721210817,-5
1437721210825,-7
1437721210833,0
1437721210841,5
1437721210848,-2
1437721210856,-5
1437721210864,-2
1437721210872,-7
1437721210880,-7
1437721210888,-7
1437721210896,-10
1437721210904,-15
1437721210911,-20
1437721210919,-10
1437721210927,-10
1437721210935,-7
1437721210943,-12
1437721210951,-12
1437721210959,-15
1437721210967,-15
1437721210974,-12
1437721210982,-20
1437721210990,-22
1437721210998,-20
1437721211006,-7
1437721211014,-12
1437721211022,-12
1437721211030,-12
1437721211038,-12
1437721211046,-12
1437721211053,-12
1437721211061,-12
1437721211069,-15
1437721211077,-27
1437721211085,-27
1437721211093,-12
1437721211101,-2
1437721211109,5
1437721211116,2
1437721211124,-2
1437721211132,-7
1437721211140,-10
1437721211148,-17
1437721211156,-17
1437721211164,-7
1437721211172,-7
1437721211179,-15
1437721211187,-10
1437721211195,-51
1437721211203,-154
1437721211211,-125
1437721211219,259
1437721211227,903
1437721211235,999
1437721211243,518
1437721211250,200
1437721211258,71
1437721211266,2
1437721211274,-54
1437721211282,-81
1437721211290,-83
1437721211298,-78
1437721211306,-78
1437721211313,-71
1437721211321,-68
1437721211329,-68
1437721211337,-56
1437721211345,-71
1437721211353,-71
1437721211361,-61
1437721211369,-66
1437721211376,-71
1437721211384,-54
1437721211392,-49
1437721211400,-66
1437721211408,-54
1437721211416,-61
1437721211424,-61
1437721211432,-49
1437721211440,-56
1437721211447,-56
1437721211455,-44
1437721211463,-32
1437721211471,-22
1437721211479,-32
1437721211487,-27
1437721211495,-10
1437721211503,0
1437721211510,-5
1437721211518,5
1437721211526,29
1437721211534,27
1437721211542,24
1437721211550,17
1437721211558,15
1437721211566,24
1437721211573,12
1437721211581,5
1437721211589,7
1437721211597,0
1437721211605,10
1437721211613,12
1437721211621,29
1437721211629,22
1437721211637,20
1437721211644,27
1437721211652,32
1437721211660,27
1437721211668,29
1437721211676,22
1437721211684,15
1437721211692,29
1437721211700,32
1437721211707,39
1437721211715,34
1437721211723,27
1437721211731,27
1437721211739,22
1437721211747,22
1437721211755,20
1437721211763,12
1437721211770,10
1437721211778,2
1437721211786,7
1437721211794,15
1437721211802,10
1437721211810,7
1437721211818,7
1437721211826,-2
1437721211834,-5
1437721211841,0
1437721211849,0
1437721211857,-2
1437721211865,-5
1437721211873,2
1437721211881,20
1437721211889,27
1437721211896,29
1437721211904,37
1437721211912,32
1437721211920,27
1437721211928,29
1437721211936,17
1437721211944,22
1437721211951,20
1437721211959,10
1437721211967,22
1437721211975,22
1437721211983,-27
1437721211991,-107
1437721211999,-54
1437721212007,352
1437721212014,964
1437721212022,1018
1437721212030,544
1437721212038,249
1437721212046,142
1437721212054,63
1437721212062,34
1437721212069,15
1437721212077,27
1437721212085,20
1437721212093,17
1437721212101,34
1437721212109,27
1437721212117,22
1437721212124,12
1437721212132,15
1437721212140,-5
1437721212148,-10
1437721212156,-10
1437721212164,-32
1437721212172,-22
1437721212179,-29
1437721212187,-29
1437721212195,-24
1437721212203,-22
1437721212211,-29
1437721212219,-34
1437721212227,-34
1437721212234,-24
1437721212242,-20
1437721212250,-27
1437721212258,-17
1437721212266,-12
1437721212274,-15
1437721212282,-15
1437721212289,-10
1437721212297,-2
1437721212305,12
1437721212313,10
1437721212321,10
1437721212329,5
1437721212337,2
1437721212344,0
1437721212352,-10
1437721212360,-12
1437721212368,-24
1437721212376,-34
1437721212384,-49
1437721212392,-56
1437721212400,-49
1437721212407,-66
1437721212415,-78
1437721212423,-83
1437721212431,-83
1437721212439,-85
1437721212447,-83
1437721212455,-76
1437721212462,-76
1437721212470,-68
1437721212478,-56
1437721212486,-51
1437721212494,-49
1437721212502,-49
1437721212510,-39
1437721212517,-32
1437721212525,-42
1437721212533,-42
1437721212541,-32
1437721212549,-24
1437721212557,-24
1437721212565,-27
1437721212572,-29
1437721212580,-29
1437721212588,-32
1437721212596,-42
1437721212604,-46
1437721212612,-46
1437721212620,-34
1437721212627,-42
1437721212635,-37
1437721212643,-22
1437721212651,-20
1437721212659,-17
1437721212667,-22
1437721212674,-12
1437721212682,-12
1437721212690,-17
1437721212698,-17
1437721212706,-17
1437721212713,-17
1437721212721,-22
1437721212729,-27
1437721212737,-34
1437721212745,-95
1437721212753,-166
1437721212760,-59
1437721212768,381
1437721212776,903
1437721212784,793
1437721212792,359
1437721212800,149
1437721212807,59
1437721212815,5
1437721212823,-42
1437721212831,-51
1437721212839,-61
1437721212846,-68
1437721212854,-61
1437721212862,-54
1437721212870,-59
1437721212878,-66
1437721212886,-66
1437721212893,-71
1437721212901,-78
1437721212909,-71
1437721212917,-68
1437721212925,-63
1437721212932,-71
1437721212940,-68
1437721212948,-68
1437721212956,-68
1437721212964,-68
1437721212972,-71
1437721212979,-73
1437721212987,-61
1437721212995,-56
1437721213003,-44
1437721213011,-39
1437721213018,-34
1437721213026,-27
1437721213034,-22
1437721213042,-34
1437721213050,-27
1437721213058,-2
1437721213065,5
1437721213073,15
1437721213081,10
1437721213089,-2
1437721213097,-22
1437721213104,-15
1437721213112,-7
1437721213120,-12
1437721213128,-5
1437721213136,-7
1437721213144,-12
1437721213151,-17
1437721213159,-24
1437721213167,-27
1437721213175,-32
1437721213183,-34
1437721213191,-22
1437721213198,-32
1437721213206,-32
1437721213214,-27
1437721213222,-27
1437721213230,-27
1437721213237,-24
1437721213245,-24
1437721213253,-20
1437721213261,-17
1437721213269,-22
1437721213277,-24
1437721213284,-24
1437721213292,-34
1437721213300,-39
1437721213308,-29
1437721213316,-39
1437721213323,-29
1437721213331,-12
1437721213339,-12
1437721213347,-17
1437721213355,-20
1437721213363,-22
1437721213370,-27
1437721213378,-27
1437721213386,-12
1437721213393,-10
1437721213401,-5
1437721213409,-20
1437721213417,-27
1437721213424,-22
1437721213432,-39
1437721213440,-39
1437721213448,-39
1437721213456,-46
1437721213464,-46
1437721213472,-46
1437721213479,-42
1437721213487,-39
1437721213495,-115
1437721213503,-183
1437721213511,-51
1437721213519,491
1437721213527,996
1437721213534,752
1437721213542,327
1437721213550,146
1437721213558,51
1437721213566,2
1437721213574,-56
1437721213582,-54
1437721213590,-51
1437721213597,-66
1437721213605,-56
1437721213613,-37
1437721213621,-44
1437721213629,-56
1437721213637,-51
1437721213645,-39
1437721213652,-46
1437721213660,-51
1437721213668,-66
1437721213676,-68
1437721213684,-66
1437721213692,-68
1437721213700,-68
1437721213707,-68
1437721213715,-66
1437721213723,-81
1437721213731,-93
1437721213739,-83
1437721213747,-85
1437721213755,-98
1437721213762,-93
1437721213770,-78
1437721213778,-78
1437721213786,-81
1437721213794,-78
1437721213802,-78
1437721213810,-88
1437721213817,-81
1437721213825,-66
1437721213833,-61
1437721213841,-83
1437721213849,-81
1437721213857,-78
1437721213865,-83
1437721213872,-76
1437721213880,-66
1437721213888,-56
1437721213896,-51
1437721213904,-42
1437721213912,-39
1437721213920,-54
1437721213927,-49
1437721213935,-34
1437721213943,-27
1437721213951,-37
1437721213959,-17
1437721213967,5
1437721213975,-20
1437721213983,-17
1437721213990,-15
1437721213998,-37
1437721214006,-39
1437721214014,-39
1437721214022,-59
1437721214030,-42
1437721214038,-39
1437721214045,-49
1437721214053,-49
1437721214061,-42
1437721214069,-44
1437721214077,-39
1437721214085,-32
1437721214093,-44
1437721214100,-51
1437721214108,-49
1437721214116,-51
1437721214124,-54
1437721214132,-49
1437721214140,-54
1437721214148,-34
1437721214155,-24
1437721214163,-37
1437721214171,-34
1437721214179,-34
1437721214187,-32
1437721214195,-34
1437721214203,-27
1437721214211,-17
1437721214219,-37
1437721214226,-32
1437721214234,-34
1437721214242,-46
1437721214250,-44
1437721214258,-117
1437721214266,-188
1437721214274,-83
1437721214282,410
1437721214289,972
1437721214297,813
1437721214305,313
1437721214313,127
1437721214321,46
1437721214329,-37
1437721214337,-73
1437721214345,-88
1437721214352,-85
1437721214360,-90
1437721214368,-85
1437721214376,-88
1437721214384,-88
1437721214392,-88
1437721214400,-68
1437721214408,-61
1437721214416,-73
1437721214423,-66
1437721214431,-78
1437721214439,-81
1437721214447,-81
1437721214455,-90
1437721214463,-105
1437721214471,-115
1437721214479,-100
1437721214486,-93
1437721214494,-98
1437721214502,-103
1437721214510,-110
1437721214518,-95
1437721214526,-95
1437721214534,-78
1437721214542,-73
1437721214549,-66
1437721214557,-51
1437721214565,-39
1437721214573,-39
1437721214581,-46
1437721214589,-34
1437721214597,-27
1437721214605,-29
1437721214613,-39
1437721214620,-51
1437721214628,-59
1437721214636,-56
1437721214644,-56
1437721214652,-59
1437721214660,-71
1437721214668,-56
1437721214676,-56
1437721214683,-44
1437721214691,-46
1437721214699,-61
1437721214707,-71
1437721214715,-78
1437721214723,-56
1437721214731,-54
1437721214739,-39
1437721214746,-29
1437721214754,-37
1437721214762,-39
1437721214770,-32
1437721214778,-27
1437721214786,-29
1437721214794,-32
1437721214802,-44
1437721214810,-29
1437721214817,-20
1437721214825,-32
1437721214833,-32
1437721214841,-24
1437721214849,-17
1437721214857,-37
1437721214865,-29
1437721214873,-27
1437721214880,-32
1437721214888,-29
1437721214896,-17
1437721214904,0
1437721214912,-2
1437721214920,5
1437721214928,-5
1437721214936,-7
1437721214943,-5
1437721214951,-20
1437721214959,-22
1437721214967,-22
1437721214975,-37
1437721214983,-29
1437721214991,-27
1437721214999,-88
1437721215007,-173
1437721215014,-107
1437721215022,291
1437721215030,884
1437721215038,935
1437721215046,464
1437721215054,188
1437721215062,81
1437721215069,10
1437721215077,-17
1437721215085,-34
1437721215093,-39
1437721215101,-42
1437721215109,-46
1437721215117,-46
1437721215124,-39
1437721215132,-34
1437721215140,-32
1437721215148,-39
1437721215156,-37
1437721215164,-27
1437721215172,-44
1437721215180,-46
1437721215187,-46
1437721215195,-44
1437721215203,-34
1437721215211,-34
1437721215219,-44
1437721215227,-54
1437721215235,-42
1437721215242,-37
1437721215250,-34
1437721215258,-27
1437721215266,-27
1437721215274,-17
1437721215282,-7
1437721215290,-12
1437721215297,2
1437721215305,12
1437721215313,10
1437721215321,12
1437721215329,24
1437721215337,34
1437721215345,27
1437721215352,27
1437721215360,27
1437721215368,37
1437721215376,39
1437721215384,29
1437721215392,22
1437721215400,24
1437721215407,27
1437721215415,24
1437721215423,22
1437721215431,34
1437721215439,54
1437721215447,51
1437721215455,44
1437721215462,46
1437721215470,56
1437721215478,49
1437721215486,42
1437721215494,42
1437721215502,49
1437721215510,51
1437721215517,49
1437721215525,37
1437721215533,39
1437721215541,44
1437721215549,44
1437721215557,49
1437721215565,46
1437721215573,34
1437721215580,27
1437721215588,22
1437721215596,12
1437721215604,17
1437721215612,15
1437721215620,10
1437721215628,17
1437721215635,32
1437721215643,37
1437721215651,49
1437721215659,66
1437721215667,59
1437721215675,61
1437721215683,61
1437721215690,56
1437721215698,59
1437721215706,61
1437721215714,61
1437721215722,71
1437721215730,59
1437721215738,46
1437721215745,29
1437721215753,-56
1437721215761,-71
1437721215769,156
1437721215777,757
1437721215785,1079
1437721215793,725
1437721215801,339
1437721215808,190
1437721215816,112
1437721215824,49
1437721215832,37
1437721215840,34
1437721215848,22
1437721215856,20
1437721215864,15
1437721215871,12
1437721215879,12
1437721215887,15
1437721215895,39
1437721215903,29
1437721215911,34
1437721215919,34
1437721215927,17
1437721215934,17
1437721215942,17
1437721215950,10
1437721215958,5
1437721215966,15
1437721215974,5
1437721215982,10
1437721215989,17
1437721215997,12
1437721216005,12
1437721216013,15
1437721216021,22
1437721216029,42
1437721216037,54
1437721216045,49
1437721216052,59
1437721216060,71
1437721216068,76
1437721216076,71
1437721216084,81
1437721216092,76
1437721216100,71
1437721216108,73
1437721216115,76
1437721216123,85
1437721216131,105
1437721216139,98
1437721216147,100
1437721216155,117
1437721216163,115
1437721216171,110
1437721216178,107
1437721216186,127
1437721216194,127
1437721216202,122
1437721216210,122
1437721216218,122
1437721216226,117
1437721216233,112
1437721216241,112
1437721216249,117
1437721216257,110
1437721216265,105
1437721216273,107
1437721216281,107
1437721216289,107
1437721216296,105
1437721216304,100
1437721216312,98
1437721216320,93
1437721216328,81
1437721216336,85
1437721216344,88
1437721216352,76
1437721216359,71
1437721216367,78
1437721216375,78
1437721216383,88
1437721216391,90
1437721216399,98
1437721216407,105
1437721216414,100
1437721216422,100
1437721216430,95
1437721216438,93
1437721216446,88
1437721216454,85
1437721216462,88
1437721216470,85
1437721216477,90
1437721216485,95
1437721216493,76
1437721216501,-12
1437721216509,-32
1437721216517,198
1437721216525,818
1437721216533,1248
1437721216540,884
1437721216548,452
1437721216556,303
1437721216564,229
1437721216572,178
1437721216580,142
1437721216588,149
1437721216596,144
1437721216604,134
1437721216611,129
1437721216619,137
1437721216627,137
1437721216635,127
1437721216643,129
1437721216651,129
1437721216659,139
1437721216667,142
1437721216674,146
1437721216682,154
1437721216690,149
1437721216698,159
1437721216706,166
1437721216714,156
1437721216722,151
1437721216730,154
1437721216737,156
1437721216745,159
1437721216753,164
1437721216761,171
1437721216769,178
1437721216777,181
1437721216785,178
1437721216793,181
1437721216801,195
1437721216808,188
1437721216816,198
1437721216824,210
1437721216832,198
1437721216840,190
1437721216848,193
1437721216856,193
1437721216864,200
1437721216871,188
1437721216879,193
1437721216887,195
1437721216895,190
1437721216903,198
1437721216911,195
1437721216919,200
1437721216927,200
1437721216934,195
1437721216942,200
1437721216950,205
1437721216958,200
1437721216966,205
1437721216974,215
1437721216982,225
1437721216990,237
1437721216998,244
1437721217005,244
1437721217013,242
1437721217021,239
1437721217029,227
1437721217037,225
1437721217045,217
1437721217053,205
1437721217061,205
1437721217068,210
1437721217076,208
1437721217084,215
1437721217092,217
1437721217100,212
1437721217108,210
1437721217116,208
1437721217124,210
1437721217131,210
1437721217139,217
1437721217147,232
1437721217155,237
1437721217163,242
1437721217171,244
1437721217179,244
1437721217187,229
1437721217195,220
1437721217202,225
1437721217210,225
1437721217218,225
1437721217226,227
1437721217234,232
1437721217242,225
1437721217250,151
1437721217258,76
1437721217265,222
1437721217273,786
1437721217281,1396
1437721217289,1240
1437721217297,698
1437721217305,444
1437721217313,320
1437721217321,249
1437721217328,210
1437721217336,193
1437721217344,188
1437721217352,176
1437721217360,173
1437721217367,168
1437721217375,168
1437721217383,171
1437721217391,183
1437721217398,186
1437721217406,188
1437721217414,200
1437721217422,193
1437721217430,188
1437721217438,183
1437721217446,173
1437721217453,161
1437721217461,146
1437721217469,142
1437721217477,125
1437721217485,129
1437721217493,127
1437721217500,125
1437721217508,127
1437721217516,125
1437721217524,120
1437721217532,122
1437721217540,137
1437721217548,134
1437721217555,146
1437721217563,154
1437721217571,164
1437721217579,173
1437721217587,183
1437721217595,190
1437721217603,193
1437721217610,193
1437721217618,200
1437721217626,203
1437721217634,205
1437721217642,205
1437721217650,212
1437721217657,212
1437721217665,217
1437721217673,222
1437721217681,212
1437721217689,222
1437721217697,222
1437721217705,220
1437721217712,232
1437721217720,232
1437721217728,225
1437721217736,232
1437721217744,227
1437721217752,244
1437721217760,251
1437721217767,244
1437721217775,247
1437721217783,244
1437721217791,239
1437721217799,237
1437721217807,237
1437721217814,244
1437721217822,244
1437721217830,244
1437721217838,244
1437721217846,251
1437721217854,254
1437721217862,249
1437721217869,249
1437721217877,242
1437721217885,249
1437721217893,247
1437721217901,239
1437721217909,251
1437721217917,259
1437721217924,269
1437721217932,276
1437721217940,266
1437721217948,249
1437721217956,247
1437721217964,254
1437721217971,251
1437721217979,254
1437721217987,249
1437721217995,249
1437721218003,261
1437721218011,239
1437721218019,151
1437721218026,112
1437721218034,371
1437721218042,1008
1437721218050,1455
1437721218058,1133
1437721218066,625
1437721218074,405
1437721218081,283
1437721218089,212
1437721218097,188
1437721218105,190
1437721218113,195
1437721218121,200
1437721218128,217
1437721218136,234
1437721218144,234
1437721218152,232
1437721218160,239
1437721218168,227
1437721218176,215
1437721218183,210
1437721218191,200
1437721218199,210
1437721218207,215
1437721218215,205
1437721218223,220
1437721218230,217
1437721218238,215
1437721218246,210
1437721218254,193
1437721218262,195
1437721218270,200
1437721218277,198
1437721218285,203
1437721218293,198
1437721218301,195
1437721218309,205
1437721218317,212
1437721218324,220
1437721218332,232
1437721218340,244
1437721218348,264
1437721218356,271
1437721218364,278
1437721218371,303
1437721218379,317
1437721218387,317
1437721218395,315
1437721218403,320
1437721218411,322
1437721218418,327
1437721218426,332
1437721218434,332
1437721218442,332
1437721218450,337
1437721218458,332
1437721218465,330
1437721218473,334
1437721218481,332
1437721218489,332
1437721218497,332
1437721218505,332
1437721218512,342
1437721218520,342
1437721218528,356
1437721218536,349
1437721218544,352
1437721218552,361
1437721218559,347
1437721218567,359
1437721218575,369
1437721218583,361
1437721218591,366
1437721218598,371
1437721218606,376
1437721218614,388
1437721218622,393
1437721218630,393
1437721218638,403
1437721218645,398
1437721218653,396
1437721218661,403
1437721218669,400
1437721218677,408
1437721218685,420
1437721218692,425
1437721218700,432
1437721218708,449
1437721218716,466
1437721218724,476
1437721218732,471
1437721218739,483
1437721218747,486
1437721218755,481
1437721218763,483
1437721218771,481
1437721218779,483
1437721218786,486
1437721218794,481
1437721218802,476
1437721218810,410
1437721218818,366
1437721218826,554
1437721218833,1111
1437721218841,1592
1437721218849,1326
1437721218857,911
1437721218865,701
1437721218873,564
1437721218880,522
1437721218888,483
1437721218896,493
1437721218904,496
1437721218912,496
1437721218920,503
1437721218927,505
1437721218935,508
1437721218943,510
1437721218951,525
1437721218959,520
1437721218967,525
1437721218975,522
1437721218982,527
1437721218990,542
1437721218998,532
1437721219006,537
1437721219014,542
1437721219022,537
1437721219030,542
1437721219038,552
1437721219045,549
1437721219053,549
1437721219061,552
1437721219069,557
1437721219077,569
1437721219085,569
1437721219093,569
1437721219101,581
1437721219108,601
1437721219116,593
1437721219124,591
1437721219132,608
1437721219140,615
1437721219148,635
1437721219156,647
1437721219163,664
1437721219171,667
1437721219179,667
1437721219187,676
1437721219195,671
1437721219203,674
1437721219211,674
1437721219219,671
1437721219226,676
1437721219234,696
1437721219242,701
1437721219250,703
1437721219258,708
1437721219266,713
1437721219274,725
1437721219282,735
1437721219289,723
1437721219297,723
1437721219305,730
1437721219313,730
1437721219321,732
1437721219329,742
1437721219337,732
1437721219345,737
1437721219352,745
1437721219360,737
1437721219368,737
1437721219376,747
1437721219384,754
1437721219392,747
1437721219400,750
1437721219407,742
1437721219415,764
1437721219423,757
1437721219431,745
1437721219439,762
1437721219447,764
1437721219455,759
1437721219463,745
1437721219470,745
1437721219478,740
1437721219486,735
1437721219494,750
1437721219502,764
1437721219510,762
1437721219518,754
1437721219526,742
1437721219533,737
1437721219541,742
1437721219549,737
1437721219557,740
1437721219565,750
1437721219573,740
1437721219581,737
1437721219588,720
1437721219596,608
1437721219604,598
1437721219612,891
1437721219620,1472
1437721219628,1667
1437721219636,1255
1437721219644,952
1437721219651,833
1437721219659,759
1437721219667,708
1437721219675,671
1437721219683,679
1437721219691,671
1437721219699,664
1437721219707,664
1437721219714,654
1437721219722,654
1437721219730,659
1437721219738,649
1437721219746,659
1437721219754,652
1437721219762,647
1437721219770,659
1437721219777,649
1437721219785,645
1437721219793,647
1437721219801,657
1437721219809,645
1437721219817,637
1437721219825,642
1437721219833,642
1437721219840,632
1437721219848,637
1437721219856,649
1437721219864,647
1437721219872,632
1437721219880,627
1437721219888,632
1437721219896,649
1437721219903,647
1437721219911,630
1437721219919,635
1437721219927,632
1437721219935,630
1437721219943,623
1437721219951,620
1437721219958,618
1437721219966,613
1437721219974,605
1437721219982,601
1437721219990,598
1437721219998,586
1437721220006,581
1437721220014,588
1437721220021,583
1437721220029,574
1437721220037,564
1437721220045,576
1437721220053,566
1437721220061,547
1437721220069,542
1437721220077,544
1437721220084,544
1437721220092,530
1437721220100,525
1437721220108,542
1437721220116,547
1437721220124,532
1437721220132,532
1437721220140,542
1437721220147,530
1437721220155,518
1437721220163,510
1437721220171,505
1437721220179,498
1437721220187,486
1437721220195,469
1437721220202,461
1437721220210,454
1437721220218,447
1437721220226,442
1437721220234,442
1437721220242,449
1437721220250,449
1437721220258,442
1437721220265,427
1437721220273,415
1437721220281,413
1437721220289,405
1437721220297,396
1437721220305,391
1437721220313,388
1437721220321,383
1437721220328,388
1437721220336,383
1437721220344,298
1437721220352,200
1437721220360,310
1437721220368,842
1437721220376,1450
1437721220383,1272
1437721220391,723
1437721220399,493
1437721220407,398
1437721220415,327
1437721220423,281
1437721220431,266
1437721220439,269
1437721220446,264
1437721220454,261
1437721220462,264
1437721220470,259
1437721220478,259
1437721220486,259
1437721220494,249
1437721220502,249
1437721220509,249
1437721220517,234
1437721220525,215
1437721220533,215
1437721220541,217
1437721220549,220
1437721220557,217
1437721220565,200
1437721220573,183
1437721220580,171
1437721220588,178
1437721220596,171
1437721220604,168
1437721220612,181
1437721220620,186
1437721220628,186
1437721220636,188
1437721220643,178
1437721220651,188
1437721220659,203
1437721220667,193
1437721220675,186
1437721220683,176
1437721220691,164
1437721220699,151
1437721220706,146
1437721220714,129
1437721220722,127
1437721220730,129
1437721220738,127
1437721220746,134
1437721220754,144
1437721220762,139
1437721220770,127
1437721220777,139
1437721220785,159
1437721220793,144
1437721220801,125
1437721220809,127
1437721220817,142
1437721220825,132
1437721220833,125
1437721220840,132
1437721220848,117
1437721220856,107
1437721220864,98
1437721220872,103
1437721220880,100
1437721220888,95
1437721220896,78
1437721220903,78
1437721220911,81
1437721220919,66
1437721220927,63
1437721220935,63
1437721220943,51
1437721220951,56
1437721220959,54
1437721220967,44
1437721220974,46
1437721220982,34
1437721220990,29
1437721220998,27
1437721221006,44
1437721221014,42
1437721221022,32
1437721221030,39
1437721221037,27
1437721221045,15
1437721221053,0
1437721221061,-12
1437721221069,-22
1437721221077,-37
1437721221085,-34
1437721221093,-37
1437721221100,-49
1437721221108,-85
1437721221116,-186
1437721221124,-188
1437721221132,186
1437721221140,869
1437721221148,1072
1437721221156,583
1437721221164,183
1437721221171,68
1437721221179,-34
1437721221187,-110
1437721221195,-110
1437721221203,-110
1437721221211,-117
1437721221219,-117
1437721221227,-125
1437721221234,-134
1437721221242,-122
1437721221250,-132
1437721221258,-144
1437721221266,-134
1437721221274,-137
1437721221282,-144
1437721221290,-149
1437721221297,-139
1437721221305,-142
1437721221313,-144
1437721221321,-142
1437721221329,-146
1437721221337,-151
1437721221345,-168
1437721221353,-176
1437721221361,-173
1437721221368,-181
1437721221376,-181
1437721221384,-183
1437721221392,-188
1437721221400,-200
1437721221408,-215
1437721221416,-208
1437721221424,-208
1437721221431,-205
1437721221439,-188
1437721221447,-195
1437721221455,-203
1437721221463,-205
1437721221471,-203
1437721221479,-208
1437721221487,-212
1437721221494,-205
1437721221502,-212
1437721221510,-212
1437721221518,-215
1437721221526,-222
1437721221534,-203
1437721221542,-193
1437721221549,-200
1437721221557,-203
1437721221565,-210
1437721221573,-210
1437721221581,-220
1437721221589,-225
1437721221597,-222
1437721221605,-227
1437721221612,-232
1437721221620,-242
1437721221628,-249
1437721221636,-256
1437721221644,-259
1437721221652,-266
1437721221660,-271
1437721221668,-271
1437721221675,-261
1437721221683,-271
1437721221691,-276
1437721221699,-273
1437721221707,-273
1437721221715,-281
1437721221723,-286
1437721221731,-295
1437721221738,-288
1437721221746,-283
1437721221754,-288
1437721221762,-298
1437721221770,-298
1437721221778,-288
1437721221786,-288
1437721221793,-283
1437721221801,-283
1437721221809,-288
1437721221817,-291
1437721221825,-293
1437721221833,-295
1437721221841,-293
1437721221849,-300
1437721221856,-283
1437721221864,-281
1437721221872,-300
1437721221880,-320
1437721221888,-405
1437721221896,-425
1437721221904,-205
1437721221912,325
1437721221919,576
1437721221927,237
1437721221935,-76
1437721221943,-198
1437721221951,-247
1437721221959,-305
1437721221967,-330
1437721221974,-332
1437721221982,-339
1437721221990,-342
1437721221998,-349
1437721222006,-354
1437721222014,-359
1437721222022,-364
1437721222030,-381
1437721222037,-391
1437721222045,-376
1437721222053,-369
1437721222061,-386
1437721222069,-378
1437721222077,-366
1437721222085,-352
1437721222093,-342
1437721222100,-364
1437721222108,-361
1437721222116,-352
1437721222124,-349
1437721222132,-347
1437721222140,-342
1437721222148,-337
1437721222156,-320
1437721222163,-317
1437721222171,-325
1437721222179,-310
1437721222187,-310
1437721222195,-303
1437721222203,-283
1437721222211,-286
1437721222218,-295
1437721222226,-283
1437721222234,-295
1437721222242,-308
1437721222250,-295
1437721222258,-308
1437721222265,-305
1437721222273,-288
1437721222281,-305
1437721222289,-308
1437721222297,-281
1437721222305,-276
1437721222313,-288
1437721222320,-276
1437721222328,-256
1437721222336,-259
1437721222344,-256
1437721222352,-249
1437721222360,-227
1437721222368,-225
1437721222375,-242
1437721222383,-239
1437721222391,-239
1437721222399,-232
1437721222407,-232
1437721222415,-227
1437721222422,-225
1437721222430,-225
1437721222438,-217
1437721222446,-227
1437721222454,-225
1437721222462,-232
1437721222470,-244
1437721222477,-215
1437721222485,-215
1437721222493,-215
1437721222501,-200
1437721222509,-200
1437721222517,-220
1437721222525,-215
1437721222532,-181
1437721222540,-181
1437721222548,-188
1437721222556,-183
1437721222564,-178
1437721222572,-188
1437721222579,-188
1437721222587,-176
1437721222595,-173
1437721222603,-173
1437721222611,-173
1437721222619,-193
1437721222627,-283
1437721222634,-317
1437721222642,-100
1437721222650,476
1437721222658,774
1437721222666,439
1437721222674,100
1437721222682,-29
1437721222689,-93
1437721222697,-151
1437721222705,-193
1437721222713,-198
1437721222721,-208
1437721222729,-210
1437721222736,-200
1437721222744,-198
1437721222752,-200
1437721222760,-210
1437721222768,-195
1437721222776,-193
1437721222784,-190
1437721222791,-200
1437721222799,-205
1437721222807,-188
1437721222815,-188
1437721222823,-198
1437721222831,-198
1437721222839,-203
1437721222846,-203
1437721222854,-200
1437721222862,-208
1437721222870,-215
1437721222878,-212
1437721222886,-200
1437721222893,-195
1437721222901,-188
1437721222909,-190
1437721222917,-181
1437721222925,-171
1437721222933,-171
1437721222941,-166
1437721222948,-161
1437721222956,-154
1437721222964,-156
1437721222972,-159
1437721222980,-159
1437721222987,-161
1437721222995,-164
1437721223003,-164
1437721223011,-161
1437721223019,-168
1437721223027,-168
1437721223034,-166
1437721223042,-156
1437721223050,-161
1437721223058,-166
1437721223066,-161
1437721223073,-173
1437721223081,-176
1437721223089,-178
1437721223097,-188
1437721223105,-203
1437721223112,-198
1437721223120,-215
1437721223128,-200
1437721223136,-198
1437721223144,-229
1437721223151,-215
1437721223159,-200
1437721223167,-200
1437721223175,-200
1437721223183,-188
1437721223191,-188
1437721223198,-190
1437721223206,-178
1437721223214,-183
1437721223222,-203
1437721223230,-200
1437721223237,-200
1437721223245,-210
1437721223253,-225
1437721223261,-225
1437721223269,-227
1437721223276,-212
1437721223284,-203
1437721223292,-205
1437721223300,-208
1437721223308,-210
1437721223316,-220
1437721223323,-212
1437721223331,-222
1437721223339,-220
1437721223347,-215
1437721223355,-222
1437721223362,-225
1437721223370,-325
1437721223378,-374
1437721223386,-122
1437721223394,549
1437721223401,1074
1437721223409,752
1437721223417,215
1437721223425,-12
1437721223433,-151
1437721223440,-225
1437721223448,-261
1437721223456,-269
1437721223464,-281
1437721223472,-288
1437721223480,-286
1437721223487,-291
1437721223495,-293
1437721223503,-300
1437721223511,-310
1437721223519,-298
1437721223526,-293
1437721223534,-305
1437721223542,-303
1437721223550,-300
1437721223558,-315
1437721223565,-325
1437721223573,-332
1437721223581,-325
1437721223589,-327
1437721223597,-344
1437721223604,-342
1437721223612,-352
1437721223620,-359
1437721223628,-359
1437721223636,-364
1437721223644,-369
1437721223651,-366
1437721223659,-349
1437721223667,-366
1437721223675,-349
1437721223683,-332
1437721223690,-322
1437721223698,-291
1437721223706,-276
1437721223714,-269
1437721223722,-261
1437721223730,-251
1437721223738,-237
1437721223746,-232
1437721223753,-244
1437721223761,-232
1437721223769,-237
1437721223777,-237
1437721223785,-217
1437721223793,-215
1437721223801,-215
1437721223809,-212
1437721223817,-217
1437721223824,-215
1437721223832,-227
1437721223840,-225
1437721223848,-210
1437721223856,-217
1437721223864,-217
1437721223872,-210
1437721223880,-210
1437721223888,-210
1437721223895,-217
1437721223903,-215
1437721223911,-210
1437721223919,-212
1437721223927,-205
1437721223935,-203
1437721223943,-193
1437721223951,-193
1437721223959,-193
1437721223966,-183
1437721223974,-208
1437721223982,-210
1437721223990,-193
1437721223998,-205
1437721224006,-200
1437721224014,-215
1437721224022,-198
1437721224030,-183
1437721224037,-198
1437721224045,-200
1437721224053,-200
1437721224061,-188
1437721224069,-200
1437721224077,-215
1437721224085,-215
1437721224093,-200
1437721224101,-205
1437721224109,-229
1437721224116,-332
1437721224124,-364
1437721224132,-93
1437721224140,552
1437721224148,864
1437721224156,466
1437721224164,61
1437721224172,-95
1437721224180,-183
1437721224187,-251
1437721224195,-286
1437721224203,-283
1437721224211,-271
1437721224219,-281
1437721224227,-283
1437721224235,-276
1437721224243,-269
1437721224251,-254
1437721224258,-247
1437721224266,-242
1437721224274,-237
1437721224282,-232
1437721224290,-227
1437721224298,-227
1437721224306,-227
1437721224314,-229
1437721224322,-227
1437721224329,-232
1437721224337,-227
1437721224345,-217
1437721224353,-229
1437721224361,-212
1437721224369,-222
1437721224377,-227
1437721224385,-212
1437721224393,-210
1437721224400,-200
1437721224408,-208
1437721224416,-208
1437721224424,-217
1437721224432,-225
1437721224440,-190
1437721224448,-186
1437721224456,-181
1437721224464,-171
1437721224471,-171
1437721224479,-154
1437721224487,-159
1437721224495,-161
1437721224503,-171
1437721224511,-188
1437721224519,-183
1437721224527,-181
1437721224535,-188
1437721224542,-188
1437721224550,-183
1437721224558,-186
1437721224566,-190
1437721224574,-188
1437721224582,-188
1437721224590,-186
1437721224597,-198
1437721224605,-200
1437721224613,-198
1437721224621,-198
1437721224629,-193
1437721224637,-198
1437721224645,-198
1437721224652,-198
1437721224660,-188
1437721224668,-190
1437721224676,-190
1437721224684,-193
1437721224692,-188
1437721224700,-195
1437721224708,-210
1437721224715,-205
1437721224723,-208
1437721224731,-210
1437721224739,-212
1437721224747,-215
1437721224755,-212
1437721224763,-200
1437721224770,-188
1437721224778,-190
1437721224786,-200
1437721224794,-193
1437721224802,-200
1437721224810,-200
1437721224818,-203
1437721224825,-208
1437721224833,-195
1437721224841,-190
1437721224849,-193
1437721224857,-266
1437721224865,-347
1437721224873,-232
1437721224880,288
1437721224888,808
1437721224896,598
1437721224904,154
1437721224912,-42
1437721224920,-142
1437721224928,-208
1437721224935,-237
1437721224943,-239
1437721224951,-264
1437721224959,-254
1437721224967,-256
1437721224975,-261
1437721224983,-264
1437721224990,-256
1437721224998,-249
1437721225006,-266
1437721225014,-259
1437721225022,-266
1437721225030,-269
1437721225038,-259
1437721225045,-266
1437721225053,-271
1437721225061,-266
1437721225069,-254
1437721225077,-264
1437721225085,-247
1437721225093,-249
1437721225101,-261
1437721225108,-266
1437721225116,-266
1437721225124,-254
1437721225132,-254
1437721225140,-256
1437721225148,-259
1437721225156,-249
1437721225163,-242
1437721225171,-242
1437721225179,-237
1437721225187,-234
1437721225195,-247
1437721225203,-239
1437721225211,-242
1437721225218,-227
1437721225226,-222
1437721225234,-249
1437721225242,-239
1437721225250,-237
1437721225258,-229
1437721225266,-222
1437721225273,-222
1437721225281,-229
1437721225289,-217
1437721225297,-205
1437721225305,-215
1437721225313,-195
1437721225321,-193
1437721225329,-183
1437721225336,-181
1437721225344,-193
1437721225352,-190
1437721225360,-178
1437721225368,-171
1437721225376,-171
1437721225384,-173
1437721225392,-171
1437721225399,-178
1437721225407,-176
1437721225415,-183
1437721225423,-190
1437721225431,-190
1437721225439,-190
1437721225447,-190
1437721225455,-193
1437721225462,-188
1437721225470,-198
1437721225478,-195
1437721225486,-198
1437721225494,-186
1437721225502,-178
1437721225510,-186
1437721225517,-149
1437721225525,-151
1437721225533,-166
1437721225541,-156
1437721225549,-166
1437721225557,-154
1437721225565,-164
1437721225573,-161
1437721225580,-149
1437721225588,-166
1437721225596,-215
1437721225604,-298
1437721225612,-256
1437721225620,132
1437721225628,698
1437721225636,708
1437721225643,269
1437721225651,39
1437721225659,-42
1437721225667,-103
1437721225675,-156
1437721225683,-168
1437721225691,-156
1437721225699,-176
1437721225706,-173
1437721225714,-161
1437721225722,-166
1437721225730,-161
1437721225738,-144
1437721225746,-146
1437721225754,-149
1437721225761,-151
1437721225769,-154
1437721225777,-159
1437721225785,-161
1437721225793,-146
1437721225801,-154
1437721225809,-154
1437721225817,-154
1437721225824,-144
1437721225832,-149
1437721225840,-154
1437721225848,-144
1437721225856,-154
1437721225864,-144
1437721225872,-139
1437721225880,-144
1437721225887,-139
1437721225895,-144
1437721225903,-134
1437721225911,-127
1437721225919,-142
1437721225927,-127
1437721225935,-120
1437721225942,-127
1437721225950,-122
1437721225958,-139
1437721225966,-149
1437721225974,-144
1437721225982,-139
1437721225990,-127
1437721225998,-132
1437721226005,-137
1437721226013,-132
1437721226021,-134
1437721226029,-132
1437721226037,-122
1437721226045,-122
1437721226053,-129
1437721226061,-134
1437721226068,-144
1437721226076,-122
1437721226084,-129
1437721226092,-132
1437721226100,-105
1437721226108,-125
1437721226116,-125
1437721226124,-112
1437721226131,-129
1437721226139,-132
1437721226147,-127
1437721226155,-129
1437721226163,-149
1437721226171,-149
1437721226179,-146
1437721226187,-151
1437721226194,-132
1437721226202,-132
1437721226210,-129
1437721226218,-117
1437721226226,-122
1437721226234,-122
1437721226242,-122
1437721226250,-137
1437721226257,-132
1437721226265,-125
1437721226273,-122
1437721226281,-120
1437721226289,-125
1437721226297,-137
1437721226305,-195
1437721226312,-278
1437721226320,-200
1437721226328,210
1437721226336,715
1437721226344,610
1437721226352,212
1437721226360,17
1437721226368,-66
1437721226375,-110
1437721226383,-161
1437721226391,-171
1437721226399,-186
1437721226407,-186
1437721226415,-178
1437721226423,-173
1437721226431,-178
1437721226438,-166
1437721226446,-161
1437721226454,-168
1437721226462,-176
1437721226470,-181
1437721226478,-171
1437721226486,-151
1437721226494,-144
1437721226501,-144
1437721226509,-144
1437721226517,-154
1437721226525,-154
1437721226533,-146
1437721226541,-142
1437721226549,-154
1437721226556,-144
1437721226564,-132
1437721226572,-132
1437721226580,-125
1437721226588,-117
1437721226596,-90
1437721226604,-83
1437721226612,-78
1437721226619,-76
1437721226627,-81
1437721226635,-81
1437721226643,-78
1437721226651,-88
1437721226659,-100
1437721226667,-100
1437721226675,-107
1437721226682,-95
1437721226690,-100
1437721226698,-110
1437721226706,-93
1437721226714,-88
1437721226722,-95
1437721226730,-88
1437721226737,-95
1437721226745,-93
1437721226753,-95
1437721226761,-100
1437721226769,-81
1437721226777,-88
1437721226785,-105
1437721226793,-93
1437721226800,-90
1437721226808,-98
1437721226816,-105
1437721226824,-107
1437721226832,-107
1437721226840,-100
1437721226848,-93
1437721226856,-103
1437721226863,-117
1437721226871,-127
1437721226879,-117
1437721226887,-103
1437721226895,-110
1437721226903,-115
1437721226911,-98
1437721226919,-78
1437721226926,-78
1437721226934,-81
1437721226942,-90
1437721226950,-83
1437721226958,-85
1437721226966,-88
1437721226974,-76
1437721226982,-71
1437721226989,-78
1437721226997,-76
1437721227005,-90
1437721227013,-193
1437721227021,-193
1437721227029,76
1437721227037,605
1437721227045,808
1437721227052,449
1437721227060,159
1437721227068,37
1437721227076,-37
1437721227084,-100
1437721227092,-122
1437721227100,-112
1437721227107,-120
1437721227115,-117
1437721227123,-117
1437721227131,-120
1437721227139,-115
1437721227147,-107
1437721227155,-127
1437721227163,-127
1437721227170,-127
1437721227178,-127
1437721227186,-125
1437721227194,-127
1437721227202,-129
1437721227210,-117
1437721227218,-112
1437721227226,-125
1437721227233,-122
1437721227241,-129
1437721227249,-127
1437721227257,-127
1437721227265,-129
1437721227273,-122
1437721227281,-127
1437721227289,-125
1437721227296,-115
1437721227304,-115
1437721227312,-120
1437721227320,-112
1437721227328,-110
1437721227336,-115
1437721227344,-122
1437721227351,-117
1437721227359,-125
1437721227367,-129
1437721227375,-129
1437721227383,-129
1437721227391,-122
1437721227399,-134
1437721227407,-132
1437721227414,-137
1437721227422,-144
1437721227430,-139
1437721227438,-134
1437721227446,-144
1437721227454,-151
1437721227462,-144
1437721227470,-149
1437721227477,-137
1437721227485,-137
1437721227493,-139
1437721227501,-134
1437721227509,-144
1437721227517,-127
1437721227525,-132
1437721227532,-129
1437721227540,-122
1437721227548,-132
1437721227556,-137
1437721227564,-134
1437721227572,-142
1437721227580,-142
1437721227588,-137
1437721227595,-134
1437721227603,-115
1437721227611,-115
1437721227619,-117
1437721227627,-117
1437721227635,-117
1437721227643,-125
1437721227651,-122
1437721227658,-122
1437721227666,-117
1437721227674,-115
1437721227682,-117
1437721227690,-122
1437721227698,-154
1437721227706,-251
1437721227713,-227
1437721227721,85
1437721227729,647
1437721227737,769
1437721227745,371
1437721227753,103
1437721227760,-12
1437721227768,-66
1437721227776,-105
1437721227784,-132
1437721227792,-137
1437721227800,-132
1437721227807,-146
1437721227815,-142
1437721227823,-144
1437721227831,-149
1437721227839,-149
1437721227847,-159
1437721227854,-164
1437721227862,-164
1437721227870,-144
1437721227878,-139
1437721227886,-142
1437721227894,-142
1437721227901,-146
1437721227909,-134
1437721227917,-137
1437721227925,-134
1437721227933,-122
1437721227941,-117
1437721227948,-122
1437721227956,-117
1437721227964,-107
1437721227972,-107
1437721227980,-95
1437721227988,-88
1437721227995,-85
1437721228003,-88
1437721228011,-88
1437721228019,-73
1437721228027,-61
1437721228035,-66
1437721228042,-76
1437721228050,-71
1437721228058,-66
1437721228066,-71
1437721228074,-63
1437721228082,-49
1437721228089,-66
1437721228097,-95
1437721228105,-85
1437721228113,-68
1437721228121,-61
1437721228128,-61
1437721228136,-54
1437721228144,-51
1437721228152,-46
1437721228160,-34
1437721228168,-22
1437721228175,-20
1437721228183,-37
1437721228191,-24
1437721228199,-10
1437721228207,-12
1437721228215,-12
1437721228222,-20
1437721228230,7
1437721228238,27
1437721228246,17
1437721228254,-7
1437721228262,12
1437721228269,34
1437721228277,49
1437721228285,49
1437721228293,59
1437721228301,78
1437721228309,76
1437721228316,90
1437721228324,93
1437721228332,88
1437721228340,100
1437721228348,93
1437721228356,95
1437721228363,98
1437721228371,95
1437721228379,98
1437721228387,63
1437721228395,-42
1437721228403,-27
1437721228410,308
1437721228418,935
1437721228426,1091
1437721228434,688
1437721228442,388
1437721228450,242
1437721228457,168
1437721228465,117
1437721228473,93
1437721228480,93
1437721228488,88
1437721228496,83
1437721228504,78
1437721228511,78
1437721228519,78
1437721228527,76
1437721228535,81
1437721228543,83
1437721228551,81
1437721228559,83
1437721228566,78
1437721228574,76
1437721228582,78
1437721228590,83
1437721228598,83
1437721228606,85
1437721228614,95
1437721228621,93
1437721228629,95
1437721228637,95
1437721228645,95
1437721228653,105
1437721228661,105
1437721228669,107
1437721228677,117
1437721228684,125
1437721228692,125
1437721228700,137
1437721228708,144
1437721228716,149
1437721228724,146
1437721228732,142
1437721228739,137
1437721228747,139
1437721228755,142
1437721228763,146
1437721228771,144
1437721228779,139
1437721228787,139
1437721228794,144
1437721228802,149
1437721228810,154
1437721228818,159
1437721228826,166
1437721228834,166
1437721228842,164
1437721228849,156
1437721228857,154
1437721228865,154
1437721228873,156
1437721228881,156
1437721228889,151
1437721228897,159
1437721228904,151
1437721228912,144
1437721228920,146
1437721228928,146
1437721228936,149
1437721228944,149
1437721228952,137
1437721228959,134
1437721228967,139
1437721228975,134
1437721228983,134
1437721228991,149
1437721228999,156
1437721229007,156
1437721229014,159
1437721229022,166
1437721229030,156
1437721229038,151
1437721229046,154
1437721229054,149
1437721229062,151
1437721229070,151
1437721229077,149
1437721229085,120
1437721229093,44
1437721229101,10
1437721229109,254
1437721229117,901
1437721229125,1284
1437721229132,896
1437721229140,476
1437721229148,288
1437721229156,176
1437721229164,117
1437721229172,85
1437721229180,83
1437721229187,68
1437721229195,85
1437721229203,81
1437721229211,78
1437721229219,83
1437721229227,85
1437721229235,85
1437721229242,68
1437721229250,78
1437721229258,83
1437721229266,63
1437721229274,73
1437721229282,76
1437721229290,78
1437721229298,83
1437721229305,83
1437721229313,83
1437721229321,78
1437721229329,78
1437721229337,61
1437721229345,54
1437721229353,71
1437721229360,90
1437721229368,78
1437721229376,66
1437721229384,76
1437721229392,81
1437721229400,81
1437721229408,76
1437721229415,81
1437721229423,90
1437721229431,107
1437721229439,107
1437721229447,90
1437721229455,100
1437721229463,105
1437721229471,93
1437721229478,81
1437721229486,81
1437721229494,95
1437721229502,93
1437721229510,85
1437721229518,88
1437721229526,85
1437721229533,63
1437721229541,71
1437721229549,59
1437721229557,59
1437721229565,63
1437721229573,68
1437721229581,49
1437721229588,42
1437721229596,46
1437721229604,27
1437721229612,29
1437721229620,37
1437721229628,27
1437721229636,15
1437721229643,12
1437721229651,15
1437721229659,15
1437721229667,12
1437721229675,27
1437721229683,17
1437721229691,5
1437721229698,10
1437721229706,17
1437721229714,20
1437721229722,22
1437721229730,10
1437721229738,-2
1437721229746,0
1437721229753,-15
1437721229761,-22
1437721229769,-17
1437721229777,-24
1437721229785,-32
1437721229793,-56
1437721229801,-154
1437721229808,-161
1437721229816,110
1437721229824,676
1437721229832,945
1437721229840,559
1437721229848,208
1437721229856,85
1437721229864,-7
1437721229871,-46
1437721229879,-66
1437721229887,-71
1437721229895,-66
1437721229903,-68
1437721229911,-83
1437721229919,-85
1437721229926,-90
1437721229934,-105
1437721229942,-115
1437721229950,-115
1437721229958,-125
1437721229966,-129
1437721229974,-127
1437721229981,-129
1437721229989,-132
1437721229997,-139
1437721230005,-149
1437721230013,-134
1437721230021,-142
1437721230029,-151
1437721230036,-146
1437721230044,-154
1437721230052,-151
1437721230060,-151
1437721230068,-154
1437721230076,-161
1437721230084,-168
1437721230092,-156
1437721230100,-154
1437721230107,-149
1437721230115,-139
1437721230123,-139
1437721230131,-132
1437721230139,-127
1437721230147,-125
1437721230155,-127
1437721230163,-110
1437721230170,-117
1437721230178,-125
1437721230186,-117
1437721230194,-122
1437721230202,-117
1437721230210,-127
1437721230218,-132
1437721230226,-137
1437721230233,-134
1437721230241,-139
1437721230249,-142
1437721230257,-134
1437721230265,-144
1437721230273,-149
1437721230281,-137
1437721230289,-139
1437721230297,-139
1437721230304,-132
1437721230312,-139
1437721230320,-137
1437721230328,-142
1437721230336,-144
1437721230344,-142
1437721230352,-139
1437721230360,-142
1437721230367,-134
1437721230375,-132
1437721230383,-134
1437721230391,-132
1437721230399,-137
1437721230407,-127
1437721230415,-117
1437721230423,-112
1437721230430,-105
1437721230438,-112
1437721230446,-110
1437721230454,-112
1437721230462,-115
1437721230470,-112
1437721230478,-112
1437721230486,-112
1437721230494,-110
1437721230501,-151
1437721230509,-259
1437721230517,-247
1437721230525,88
1437721230533,698
1437721230541,872
1437721230549,447
1437721230557,112
1437721230564,-7
1437721230572,-83
1437721230580,-132
1437721230588,-164
1437721230596,-176
1437721230604,-173
1437721230612,-171
1437721230620,-178
1437721230627,-183
1437721230635,-183
1437721230643,-183
1437721230651,-176
1437721230659,-166
1437721230667,-181
1437721230675,-171
1437721230683,-154
1437721230691,-161
1437721230698,-164
1437721230706,-166
1437721230714,-166
1437721230722,-164
1437721230730,-171
1437721230738,-166
1437721230746,-159
1437721230754,-168
1437721230761,-159
1437721230769,-164
1437721230777,-164
1437721230785,-151
1437721230793,-154
1437721230801,-149
1437721230809,-151
1437721230817,-144
1437721230824,-142
1437721230832,-142
1437721230840,-144
1437721230848,-149
1437721230856,-149
1437721230864,-154
1437721230872,-139
1437721230880,-134
1437721230888,-129
1437721230896,-144
1437721230903,-144
1437721230911,-129
1437721230919,-142
1437721230927,-156
1437721230935,-142
1437721230943,-134
1437721230951,-139
1437721230959,-137
1437721230966,-134
1437721230974,-139
1437721230982,-139
1437721230990,-139
1437721230998,-146
1437721231006,-146
1437721231014,-146
1437721231022,-146
1437721231029,-159
1437721231037,-146
1437721231045,-149
1437721231053,-164
1437721231061,-159
1437721231069,-149
1437721231077,-164
1437721231085,-159
1437721231093,-146
1437721231100,-154
1437721231108,-149
1437721231116,-156
1437721231124,-144
1437721231132,-127
1437721231140,-134
1437721231148,-129
1437721231156,-134
1437721231163,-146
1437721231171,-151
1437721231179,-151
1437721231187,-154
1437721231195,-151
1437721231203,-156
1437721231211,-171
1437721231219,-249
1437721231226,-332
1437721231234,-200
1437721231242,342
1437721231250,952
1437721231258,786
1437721231266,266
1437721231274,20
1437721231282,-85
1437721231290,-146
1437721231297,-198
1437721231305,-210
1437721231313,-215
1437721231321,-210
1437721231329,-210
1437721231337,-215
1437721231345,-222
1437721231353,-229
1437721231360,-225
1437721231368,-215
1437721231376,-215
1437721231384,-215
1437721231392,-215
1437721231400,-217
1437721231408,-212
1437721231416,-212
1437721231423,-210
1437721231431,-220
1437721231439,-217
1437721231447,-222
1437721231455,-220
1437721231463,-222
1437721231471,-225
1437721231479,-227
1437721231487,-225
1437721231494,-215
1437721231502,-212
1437721231510,-210
1437721231518,-208
1437721231526,-203
1437721231534,-208
1437721231542,-193
1437721231550,-186
1437721231557,-195
1437721231565,-190
1437721231573,-193
1437721231581,-195
1437721231589,-200
1437721231597,-200
1437721231605,-200
1437721231613,-200
1437721231620,-208
1437721231628,-205
1437721231636,-210
1437721231644,-210
1437721231652,-210
1437721231660,-217
1437721231668,-225
1437721231676,-227
1437721231684,-225
1437721231691,-220
1437721231699,-215
1437721231707,-217
1437721231715,-215
1437721231723,-210
1437721231731,-205
1437721231739,-210
1437721231747,-217
1437721231754,-205
1437721231762,-200
1437721231770,-225
1437721231778,-220
1437721231786,-208
1437721231794,-212
1437721231802,-222
1437721231810,-222
1437721231817,-234
1437721231825,-232
1437721231833,-225
1437721231841,-215
1437721231849,-208
1437721231857,-212
1437721231865,-222
1437721231872,-225
1437721231880,-222
1437721231888,-232
1437721231896,-222
1437721231904,-239
1437721231912,-249
1437721231920,-237
1437721231928,-239
1437721231935,-313
1437721231943,-383
1437721231951,-266
1437721231959,300
1437721231967,964
1437721231975,862
1437721231983,291
1437721231991,-17
1437721231998,-139
1437721232006,-232
1437721232014,-273
1437721232022,-291
1437721232030,-295
1437721232038,-303
1437721232046,-315
1437721232054,-327
1437721232061,-325
1437721232069,-327
1437721232077,-334
1437721232085,-337
1437721232093,-334
1437721232101,-332
1437721232109,-334
1437721232116,-339
1437721232124,-332
1437721232132,-330
1437721232140,-325
1437721232148,-325
1437721232156,-327
1437721232164,-320
1437721232172,-315
1437721232179,-320
1437721232187,-342
1437721232195,-352
1437721232203,-347
1437721232211,-344
1437721232219,-354
1437721232227,-354
1437721232235,-352
1437721232242,-361
1437721232250,-344
1437721232258,-320
1437721232266,-313
1437721232274,-305
1437721232282,-278
1437721232290,-266
1437721232297,-278
1437721232305,-281
1437721232313,-276
1437721232321,-269
1437721232329,-278
1437721232337,-266
1437721232345,-261
1437721232353,-266
1437721232360,-261
1437721232368,-276
1437721232376,-278
1437721232384,-288
1437721232392,-298
1437721232400,-295
1437721232408,-286
1437721232416,-286
1437721232423,-286
1437721232431,-276
1437721232439,-276
1437721232447,-269
1437721232455,-288
1437721232463,-283
1437721232471,-283
1437721232478,-291
1437721232486,-283
1437721232494,-295
1437721232502,-300
1437721232510,-305
1437721232518,-293
1437721232525,-293
1437721232533,-295
1437721232541,-298
1437721232549,-303
1437721232557,-293
1437721232564,-283
1437721232572,-276
1437721232580,-283
1437721232588,-283
1437721232596,-283
1437721232604,-283
1437721232611,-281
1437721232619,-298
1437721232627,-293
1437721232635,-283
1437721232643,-276
1437721232651,-283
1437721232658,-359
1437721232666,-430
1437721232674,-310
1437721232682,210
1437721232690,750
1437721232697,603
1437721232705,110
1437721232713,-112
1437721232721,-186
1437721232729,-266
1437721232737,-310
1437721232744,-313
1437721232752,-315
1437721232760,-315
1437721232768,-317
1437721232776,-349
1437721232783,-330
1437721232791,-339
1437721232799,-354
1437721232807,-342
1437721232815,-359
1437721232823,-364
1437721232830,-347
1437721232838,-352
1437721232846,-354
1437721232854,-349
1437721232862,-354
1437721232869,-352
1437721232877,-354
1437721232885,-356
1437721232893,-359
1437721232901,-364
1437721232909,-366
1437721232916,-364
1437721232924,-356
1437721232932,-352
1437721232940,-369
1437721232948,-378
1437721232955,-376
1437721232963,-398
1437721232971,-381
1437721232979,-366
1437721232987,-364
1437721232995,-352
1437721233002,-347
1437721233010,-356
1437721233018,-366
1437721233026,-334
1437721233034,-325
1437721233042,-327
1437721233049,-325
1437721233057,-344
1437721233065,-354
1437721233073,-342
1437721233081,-322
1437721233088,-334
1437721233096,-342
1437721233104,-330
1437721233112,-334
1437721233120,-352
1437721233128,-344
1437721233135,-330
1437721233143,-308
1437721233151,-322
1437721233159,-332
1437721233167,-310
1437721233174,-305
1437721233182,-334
1437721233190,-347
1437721233198,-337
1437721233206,-305
1437721233214,-291
1437721233221,-308
1437721233229,-298
1437721233237,-300
1437721233245,-310
1437721233253,-298
1437721233261,-298
1437721233269,-313
1437721233276,-298
1437721233284,-293
1437721233292,-276
1437721233300,-283
1437721233308,-295
1437721233316,-286
1437721233323,-266
1437721233331,-271
1437721233339,-291
1437721233347,-310
1437721233355,-303
1437721233363,-278
1437721233370,-317
1437721233378,-393
1437721233386,-452
1437721233394,-344
1437721233402,149
1437721233410,647
1437721233417,454
1437721233425,39
1437721233433,-115
1437721233441,-195
1437721233449,-237
1437721233457,-298
1437721233465,-303
1437721233472,-315
1437721233480,-347
1437721233488,-310
1437721233496,-286
1437721233504,-293
1437721233512,-295
1437721233519,-313
1437721233527,-330
1437721233535,-291
1437721233543,-273
1437721233551,-286
1437721233559,-286
1437721233566,-286
1437721233574,-298
1437721233582,-313
1437721233590,-308
1437721233598,-278
1437721233606,-261
1437721233613,-281
1437721233621,-286
1437721233629,-291
1437721233637,-264
1437721233645,-234
1437721233653,-259
1437721233661,-251
1437721233668,-232
1437721233676,-229
1437721233684,-215
1437721233692,-217
1437721233700,-217
1437721233708,-210
1437721233715,-215
1437721233723,-229
1437721233731,-234
1437721233739,-237
1437721233747,-237
1437721233755,-227
1437721233762,-227
1437721233770,-232
1437721233778,-222
1437721233786,-225
1437721233794,-237
1437721233802,-225
1437721233809,-210
1437721233817,-195
1437721233825,-200
1437721233833,-198
1437721233841,-176
1437721233849,-190
1437721233857,-205
1437721233864,-190
1437721233872,-193
1437721233880,-203
1437721233888,-205
1437721233896,-195
1437721233904,-210
1437721233911,-210
1437721233919,-212
1437721233927,-203
1437721233935,-193
1437721233943,-210
1437721233951,-222
1437721233958,-220
1437721233966,-217
1437721233974,-217
1437721233982,-208
1437721233990,-198
1437721233998,-200
1437721234005,-193
1437721234013,-171
1437721234021,-171
1437721234029,-183
1437721234037,-186
1437721234045,-171
1437721234053,-154
1437721234061,-166
1437721234069,-171
1437721234076,-156
1437721234084,-181
1437721234092,-288
1437721234100,-298
1437721234108,5
1437721234116,620
1437721234124,894
1437721234132,508
1437721234140,115
1437721234147,-22
1437721234155,-85
1437721234163,-156
1437721234171,-186
1437721234179,-183
1437721234187,-198
1437721234195,-178
1437721234203,-161
1437721234211,-181
1437721234218,-188
1437721234226,-205
1437721234234,-198
1437721234242,-193
1437721234250,-198
1437721234258,-203
1437721234266,-183
1437721234274,-178
1437721234282,-203
1437721234289,-212
1437721234297,-205
1437721234305,-190
1437721234313,-193
1437721234321,-193
1437721234329,-200
1437721234337,-210
1437721234345,-215
1437721234353,-222
1437721234360,-234
1437721234368,-232
1437721234376,-193
1437721234384,-149
1437721234392,-166
1437721234400,-159
1437721234408,-144
1437721234416,-154
1437721234424,-168
1437721234432,-193
1437721234439,-190
1437721234447,-200
1437721234455,-220
1437721234463,-195
1437721234471,-198
1437721234479,-208
1437721234487,-190
1437721234495,-200
1437721234503,-200
1437721234510,-208
1437721234518,-208
1437721234526,-200
1437721234534,-208
1437721234542,-225
1437721234550,-190
1437721234558,-176
1437721234566,-178
1437721234574,-195
1437721234581,-210
1437721234589,-183
1437721234597,-186
1437721234605,-193
1437721234613,-200
1437721234621,-205
1437721234629,-193
1437721234637,-210
1437721234645,-210
1437721234652,-205
1437721234660,-208
1437721234668,-203
1437721234676,-217
1437721234684,-193
1437721234692,-195
1437721234700,-205
1437721234708,-212
1437721234716,-200
1437721234723,-171
1437721234731,-173
1437721234739,-168
1437721234747,-176
1437721234755,-181
1437721234763,-168
1437721234771,-188
1437721234779,-190
1437721234787,-178
1437721234794,-166
1437721234802,-166
1437721234810,-208
1437721234818,-315
1437721234826,-330
1437721234833,22
1437721234841,681
1437721234849,969
1437721234857,544
1437721234864,144
1437721234872,-22
1437721234880,-142
1437721234888,-190
1437721234896,-227
1437721234904,-222
1437721234912,-227
1437721234920,-225
1437721234927,-229
1437721234935,-237
1437721234943,-249
1437721234951,-249
1437721234959,-234
1437721234967,-247
1437721234975,-261
1437721234983,-249
1437721234990,-242
1437721234998,-244
1437721235006,-244
1437721235014,-256
1437721235022,-266
1437721235030,-266
1437721235038,-271
1437721235045,-266
1437721235053,-266
1437721235061,-276
1437721235069,-278
1437721235077,-300
1437721235085,-291
1437721235093,-273
1437721235101,-271
1437721235108,-269
1437721235116,-283
1437721235124,-283
1437721235132,-276
1437721235140,-271
1437721235148,-254
1437721235156,-254
1437721235163,-249
1437721235171,-251
1437721235179,-264
1437721235187,-222
1437721235195,-200
1437721235203,-193
1437721235211,-200
1437721235219,-225
1437721235226,-190
1437721235234,-203
1437721235242,-195
1437721235250,-190
1437721235258,-217
1437721235266,-217
1437721235274,-234
1437721235282,-222
1437721235289,-200
1437721235297,-205
1437721235305,-186
1437721235313,-183
1437721235321,-181
1437721235329,-176
1437721235337,-193
1437721235344,-212
1437721235352,-193
1437721235360,-188
1437721235368,-220
1437721235376,-203
1437721235384,-193
1437721235392,-190
1437721235400,-195
1437721235407,-200
1437721235415,-193
1437721235423,-200
1437721235431,-198
1437721235439,-205
1437721235447,-186
1437721235455,-171
1437721235462,-188
1437721235470,-193
1437721235478,-181
1437721235486,-166
1437721235494,-176
1437721235502,-200
1437721235510,-186
1437721235518,-159
1437721235525,-166
1437721235533,-181
1437721235541,-276
1437721235549,-300
1437721235557,-44
1437721235565,525
1437721235573,874
1437721235581,520
1437721235588,95
1437721235596,-7
1437721235604,-105
1437721235612,-188
1437721235620,-217
1437721235628,-237
1437721235636,-237
1437721235644,-222
1437721235651,-232
1437721235659,-242
1437721235667,-210
1437721235675,-203
1437721235683,-208
1437721235691,-208
1437721235699,-220
1437721235707,-249
1437721235714,-249
1437721235722,-220
1437721235730,-217
1437721235738,-247
1437721235746,-217
1437721235754,-198
1437721235762,-239
1437721235770,-217
1437721235777,-205
1437721235785,-242
1437721235793,-237
1437721235801,-222
1437721235809,-215
1437721235817,-239
1437721235825,-225
1437721235832,-190
1437721235840,-205
1437721235848,-217
1437721235856,-227
1437721235864,-232
1437721235872,-178
1437721235880,-183
1437721235888,-200
1437721235895,-188
1437721235903,-178
1437721235911,-212
1437721235919,-222
1437721235927,-168
1437721235935,-183
1437721235943,-181
1437721235951,-181
1437721235958,-193
1437721235966,-198
1437721235974,-176
1437721235982,-166
1437721235990,-183
1437721235998,-200
1437721236006,-193
1437721236014,-176
1437721236021,-195
1437721236029,-215
1437721236037,-198
1437721236045,-186
1437721236053,-232
1437721236061,-205
1437721236069,-183
1437721236076,-178
1437721236084,-183
1437721236092,-210
1437721236100,-210
1437721236108,-208
1437721236116,-222
1437721236124,-222
1437721236132,-181
1437721236139,-208
1437721236147,-220
1437721236155,-227
1437721236163,-232
1437721236171,-227
1437721236179,-198
1437721236187,-188
1437721236195,-188
1437721236202,-171
1437721236210,-195
1437721236218,-193
1437721236226,-203
1437721236234,-225
1437721236242,-237
1437721236250,-217
1437721236257,-217
1437721236265,-217
1437721236273,-264
1437721236281,-342
1437721236289,-251
1437721236297,190
1437721236305,710
1437721236313,708
1437721236320,286
1437721236328,5
1437721236336,-100
1437721236344,-181
1437721236352,-220
1437721236360,-225
1437721236368,-234
1437721236376,-249
1437721236383,-259
1437721236391,-227
1437721236399,-210
1437721236407,-217
1437721236415,-222
1437721236423,-227
1437721236431,-232
1437721236439,-242
1437721236447,-242
1437721236454,-247
1437721236462,-227
1437721236470,-237
1437721236478,-261
1437721236486,-215
1437721236494,-203
1437721236502,-222
1437721236510,-227
1437721236517,-234
1437721236525,-239
1437721236533,-244
1437721236541,-237
1437721236549,-232
1437721236557,-232
1437721236565,-234
1437721236573,-227
1437721236580,-217
1437721236588,-208
1437721236596,-220
1437721236604,-225
1437721236612,-215
1437721236620,-234
1437721236628,-222
1437721236636,-237
1437721236644,-234
1437721236651,-200
1437721236659,-222
1437721236667,-225
1437721236675,-227
1437721236683,-232
1437721236691,-234
1437721236699,-244
1437721236707,-232
1437721236714,-237
1437721236722,-227
1437721236730,-232
1437721236738,-242
1437721236746,-205
1437721236754,-200
1437721236762,-222
1437721236770,-222
1437721236777,-229
1437721236785,-229
1437721236793,-222
1437721236801,-232
1437721236809,-225
1437721236817,-227
1437721236825,-244
1437721236833,-208
1437721236841,-210
1437721236848,-229
1437721236856,-215
1437721236864,-225
1437721236872,-212
1437721236880,-210
1437721236888,-227
1437721236896,-208
1437721236904,-203
1437721236911,-217
1437721236919,-217
1437721236927,-210
1437721236935,-205
1437721236943,-186
1437721236951,-171
1437721236959,-154
1437721236967,-149
1437721236974,-151
1437721236982,-154
1437721236990,-144
1437721236998,-151
1437721237006,-156
1437721237014,-144
1437721237022,-159
1437721237030,-161
1437721237038,-166
1437721237045,-249
1437721237053,-337
1437721237061,-176
1437721237069,430
1437721237077,974
1437721237085,754
1437721237093,251
1437721237101,32
1437721237108,-66
1437721237116,-144
1437721237124,-171
1437721237132,-183
1437721237140,-203
1437721237148,-203
1437721237156,-200
1437721237164,-198
1437721237171,-203
1437721237179,-198
1437721237187,-205
1437721237195,-222
1437721237203,-225
1437721237211,-225
1437721237219,-237
1437721237227,-237
1437721237235,-232
1437721237242,-244
1437721237250,-242
1437721237258,-232
1437721237266,-242
1437721237274,-237
1437721237282,-249
1437721237290,-244
1437721237297,-225
1437721237305,-237
1437721237313,-244
1437721237321,-249
1437721237329,-242
1437721237337,-237
1437721237344,-237
1437721237352,-227
1437721237360,-210
1437721237368,-200
1437721237376,-193
1437721237384,-198
1437721237392,-198
1437721237399,-195
1437721237407,-183
1437721237415,-183
1437721237423,-181
1437721237431,-171
1437721237439,-159
1437721237447,-156
1437721237454,-171
1437721237462,-171
1437721237470,-164
1437721237478,-146
1437721237486,-149
1437721237494,-161
1437721237501,-149
1437721237509,-139
1437721237517,-164
1437721237525,-159
1437721237533,-122
1437721237541,-120
1437721237549,-127
1437721237556,-125
1437721237564,-125
1437721237572,-132
1437721237580,-134
1437721237588,-137
1437721237596,-142
1437721237604,-134
1437721237611,-139
1437721237619,-144
1437721237627,-127
1437721237635,-120
1437721237643,-122
1437721237651,-120
1437721237658,-112
1437721237666,-115
1437721237674,-117
1437721237682,-120
1437721237690,-110
1437721237698,-105
1437721237706,-98
1437721237713,-110
1437721237721,-107
1437721237729,-103
1437721237737,-110
1437721237745,-110
1437721237753,-103
1437721237761,-103
1437721237768,-107
1437721237776,-100
1437721237784,-88
1437721237792,-78
1437721237800,-90
1437721237808,-83
1437721237815,-90
1437721237823,-107
1437721237831,-90
1437721237839,-95
1437721237847,-117
1437721237855,-98
1437721237863,-88
1437721237870,-112
1437721237878,-205
1437721237886,-229
1437721237894,68
1437721237902,723
1437721237910,1052
1437721237918,667
1437721237925,234
1437721237933,71
1437721237941,-29
1437721237949,-100
1437721237957,-105
1437721237965,-105
1437721237972,-117
1437721237980,-120
1437721237988,-117
1437721237996,-125
1437721238004,-132
1437721238012,-134
1437721238020,-144
1437721238027,-134
1437721238035,-127
1437721238043,-139
1437721238051,-134
1437721238059,-137
1437721238066,-132
1437721238074,-139
1437721238082,-149
1437721238090,-139
1437721238098,-120
1437721238106,-127
1437721238113,-134
1437721238121,-129
1437721238129,-134
1437721238137,-132
1437721238145,-139
1437721238152,-149
1437721238160,-144
1437721238168,-149
1437721238176,-146
1437721238184,-151
1437721238191,-144
1437721238199,-112
1437721238207,-117
1437721238215,-107
1437721238223,-105
1437721238230,-107
1437721238238,-88
1437721238246,-95
1437721238254,-85
1437721238262,-83
1437721238270,-98
1437721238277,-93
1437721238285,-88
1437721238293,-85
1437721238301,-81
1437721238309,-78
1437721238316,-76
1437721238324,-66
1437721238332,-71
1437721238340,-81
1437721238348,-73
1437721238355,-66
1437721238363,-68
1437721238371,-66
1437721238379,-68
1437721238387,-81
1437721238395,-73
1437721238402,-78
1437721238410,-78
1437721238418,-78
1437721238426,-78
1437721238434,-71
1437721238441,-71
1437721238449,-73
1437721238457,-76
1437721238465,-71
1437721238473,-61
1437721238480,-56
1437721238488,-61
1437721238496,-63
1437721238504,-68
1437721238512,-71
1437721238519,-66
1437721238527,-56
1437721238535,-66
1437721238543,-73
1437721238551,-56
1437721238559,-56
1437721238566,-73
1437721238574,-68
1437721238582,-59
1437721238590,-61
1437721238598,-59
1437721238605,-51
1437721238613,-59
1437721238621,-42
1437721238629,-44
1437721238637,-59
1437721238644,-44
1437721238652,-44
1437721238660,-51
1437721238668,-44
1437721238676,-32
1437721238683,-37
1437721238691,-39
1437721238699,-34
1437721238707,-32
1437721238715,-32
1437721238723,-44
1437721238730,-46
1437721238738,-46
1437721238746,-46
1437721238754,-54
1437721238762,-56
1437721238769,-85
1437721238777,-178
1437721238785,-151
1437721238793,205
1437721238801,776
1437721238809,891
1437721238817,469
1437721238824,171
1437721238832,56
1437721238840,-34
1437721238848,-73
1437721238856,-83
1437721238864,-90
1437721238872,-95
1437721238880,-78
1437721238887,-76
1437721238895,-85
1437721238903,-88
1437721238911,-88
1437721238919,-88
1437721238927,-95
1437721238935,-107
1437721238943,-105
1437721238950,-85
1437721238958,-90
1437721238966,-103
1437721238974,-95
1437721238982,-88
1437721238990,-98
1437721238998,-107
1437721239005,-110
1437721239013,-112
1437721239021,-112
1437721239029,-122
1437721239037,-117
1437721239045,-117
1437721239053,-127
1437721239061,-112
1437721239068,-110
1437721239076,-127
1437721239084,-125
1437721239092,-125
1437721239100,-117
1437721239108,-115
1437721239116,-112
1437721239124,-93
1437721239131,-100
1437721239139,-98
1437721239147,-88
1437721239155,-93
1437721239163,-105
1437721239171,-105
1437721239179,-98
1437721239187,-88
1437721239194,-88
1437721239202,-85
1437721239210,-83
1437721239218,-83
1437721239226,-85
1437721239234,-93
1437721239242,-85
1437721239249,-83
1437721239257,-78
1437721239265,-78
1437721239273,-83
1437721239281,-71
1437721239289,-66
1437721239297,-66
1437721239305,-63
1437721239312,-68
1437721239320,-78
1437721239328,-71
1437721239336,-71
1437721239344,-73
1437721239352,-71
1437721239360,-71
1437721239368,-76
1437721239375,-81
1437721239383,-68
1437721239391,-68
1437721239399,-85
1437721239407,-73
1437721239415,-66
1437721239423,-66
1437721239430,-68
1437721239438,-61
1437721239446,-51
1437721239454,-61
1437721239462,-56
1437721239470,-61
1437721239478,-61
1437721239486,-51
1437721239493,-51
1437721239501,-44
1437721239509,-46
1437721239517,-44
1437721239525,-44
1437721239533,-49
1437721239541,-42
1437721239549,-42
1437721239556,-46
1437721239564,-46
1437721239572,-42
1437721239580,-27
1437721239588,-20
1437721239596,-15
1437721239604,-15
1437721239612,-20
1437721239619,-24
1437721239627,-34
1437721239635,-46
1437721239643,-56
1437721239651,-49
1437721239659,-51
1437721239667,-59
1437721239675,-56
1437721239682,-85
1437721239690,-181
1437721239698,-166
1437721239706,222
1437721239714,876
1437721239722,1018
1437721239730,532
1437721239738,203
1437721239745,103
1437721239753,32
1437721239761,-17
1437721239769,-39
1437721239777,-29
1437721239785,-37
1437721239793,-46
1437721239800,-44
1437721239808,-44
1437721239816,-49
1437721239824,-56
1437721239832,-61
1437721239840,-63
1437721239848,-66
1437721239856,-54
1437721239863,-39
1437721239871,-46
1437721239879,-49
1437721239887,-51
1437721239895,-42
1437721239903,-29
1437721239911,-42
1437721239919,-44
1437721239926,-39
1437721239934,-46
1437721239942,-39
1437721239950,-39
1437721239958,-46
1437721239966,-32
1437721239974,-34
1437721239982,-44
1437721239989,-39
1437721239997,-32
1437721240005,-24
1437721240013,-24
1437721240021,-20
1437721240029,-27
1437721240037,-29
1437721240044,-7
1437721240052,-12
1437721240060,-22
1437721240068,-12
1437721240076,-7
1437721240084,-7
1437721240092,-2
1437721240100,0
1437721240107,-7
1437721240115,-5
1437721240123,0
1437721240131,-7
1437721240139,-10
1437721240147,2
1437721240155,0
1437721240163,7
1437721240170,10
1437721240178,5
1437721240186,10
1437721240194,-2
1437721240202,0
1437721240210,12
1437721240218,2
1437721240225,0
1437721240233,7
1437721240241,0
1437721240249,0
1437721240257,7
1437721240265,2
1437721240273,-12
1437721240281,0
1437721240288,5
1437721240296,7
1437721240304,0
1437721240312,0
1437721240320,2
1437721240328,-5
1437721240336,5
1437721240344,12
1437721240351,7
1437721240359,10
1437721240367,17
1437721240375,10
1437721240383,17
1437721240391,0
1437721240399,5
1437721240407,7
1437721240415,5
1437721240422,15
1437721240430,0
1437721240438,5
1437721240446,5
1437721240454,15
1437721240462,22
1437721240470,29
1437721240478,39
1437721240485,46
1437721240493,39
1437721240501,37
1437721240509,42
1437721240517,34
1437721240525,32
1437721240533,44
1437721240541,46
1437721240548,37
1437721240556,-15
1437721240564,-120
1437721240572,-51
1437721240580,459
1437721240588,1162
1437721240596,1162
1437721240604,613
1437721240612,273
1437721240619,134
1437721240627,46
1437721240635,-2
1437721240643,-20
1437721240651,-17
1437721240659,-15
1437721240667,-27
1437721240675,-17
1437721240682,-22
1437721240690,-22
1437721240698,-17
1437721240706,-27
1437721240714,-27
1437721240722,-22
1437721240730,-20
1437721240738,-29
1437721240745,-29
1437721240753,-27
1437721240761,-22
1437721240769,-22
1437721240777,-27
1437721240785,-27
1437721240793,-32
1437721240801,-22
1437721240809,-22
1437721240816,-27
1437721240824,-34
1437721240832,-34
1437721240840,-27
1437721240848,-32
1437721240856,-42
1437721240864,-42
1437721240872,-24
1437721240879,-24
1437721240887,-12
1437721240895,5
1437721240903,-5
1437721240911,2
1437721240919,5
1437721240927,22
1437721240935,17
1437721240942,2
1437721240950,15
1437721240958,0
1437721240966,-12
1437721240974,5
1437721240982,7
1437721240990,5
1437721240998,7
1437721241006,20
1437721241013,22
1437721241021,27
1437721241029,39
1437721241037,44
1437721241045,27
1437721241053,24
1437721241061,42
1437721241069,34
1437721241076,17
1437721241084,17
1437721241092,17
1437721241100,0
1437721241108,10
1437721241116,5
1437721241124,-17
1437721241132,10
1437721241139,-5
1437721241147,-2
1437721241155,2
1437721241163,0
1437721241171,5
1437721241179,-2
1437721241187,-5
1437721241195,-7
1437721241203,-5
1437721241211,-7
1437721241218,7
1437721241226,7
1437721241234,7
1437721241242,7
1437721241250,10
1437721241258,27
1437721241266,24
1437721241274,7
1437721241281,15
1437721241289,10
1437721241297,10
1437721241305,17
1437721241313,22
1437721241321,27
1437721241329,5
1437721241337,-5
1437721241344,5
1437721241352,12
1437721241360,7
1437721241368,15
1437721241376,22
1437721241384,32
1437721241392,17
1437721241400,15
1437721241408,12
1437721241415,-5
1437721241423,-2
1437721241431,-2
1437721241439,-5
1437721241447,-5
1437721241455,12
1437721241463,-15
1437721241471,-88
1437721241478,-137
1437721241486,0
1437721241494,515
1437721241502,1035
1437721241510,779
1437721241518,320
1437721241526,166
1437721241534,68
1437721241541,5
1437721241549,-39
1437721241557,-39
1437721241565,-61
1437721241573,-54
1437721241581,-49
1437721241589,-34
1437721241597,-46
1437721241605,-59
1437721241612,-59
1437721241620,-61
1437721241628,-44
1437721241636,-54
1437721241644,-54
1437721241652,-56
1437721241660,-59
1437721241668,-49
1437721241675,-56
1437721241683,-68
1437721241691,-71
1437721241699,-71
1437721241707,-73
1437721241715,-78
1437721241723,-81
1437721241731,-88
1437721241738,-98
1437721241746,-93
1437721241754,-103
1437721241762,-83
1437721241770,-66
1437721241778,-93
1437721241786,-83
1437721241794,-73
1437721241802,-81
1437721241809,-71
1437721241817,-71
1437721241825,-81
1437721241833,-90
1437721241841,-73
1437721241849,-78
1437721241857,-88
1437721241865,-78
1437721241872,-85
1437721241880,-88
1437721241888,-98
1437721241896,-90
1437721241904,-100
1437721241912,-110
1437721241920,-105
1437721241928,-98
1437721241935,-95
1437721241943,-100
1437721241951,-100
1437721241959,-100
1437721241967,-78
1437721241975,-78
1437721241983,-90
1437721241991,-88
1437721241999,-93
1437721242006,-88
1437721242014,-85
1437721242022,-83
1437721242030,-81
1437721242038,-78
1437721242046,-93
1437721242054,-95
1437721242061,-88
1437721242069,-88
1437721242077,-88
1437721242085,-90
1437721242093,-81
1437721242101,-81
1437721242109,-81
1437721242116,-88
1437721242124,-83
1437721242132,-76
1437721242140,-78
1437721242148,-83
1437721242156,-83
1437721242164,-88
1437721242172,-90
1437721242179,-88
1437721242187,-98
1437721242195,-98
1437721242203,-105
1437721242211,-112
1437721242219,-115
1437721242227,-122
1437721242234,-122
1437721242242,-125
1437721242250,-127
1437721242258,-107
1437721242266,-105
1437721242274,-103
1437721242282,-90
1437721242289,-85
1437721242297,-78
1437721242305,-88
1437721242313,-95
1437721242321,-95
1437721242329,-90
1437721242337,-85
1437721242344,-100
1437721242352,-103
1437721242360,-103
1437721242368,-164
1437721242376,-271
1437721242384,-205
1437721242392,264
1437721242399,869
1437721242407,757
1437721242415,273
1437721242423,68
1437721242431,-24
1437721242439,-63
1437721242447,-120
1437721242454,-142
1437721242462,-146
1437721242470,-146
1437721242478,-156
1437721242486,-149
1437721242494,-149
1437721242502,-146
1437721242509,-144
1437721242517,-149
1437721242525,-144
1437721242533,-134
1437721242541,-139
1437721242549,-139
1437721242557,-139
1437721242565,-120
1437721242572,-115
1437721242580,-117
1437721242588,-105
1437721242596,-110
1437721242604,-105
1437721242612,-100
1437721242620,-90
1437721242627,-68
1437721242635,-66
1437721242643,-66
1437721242651,-51
1437721242659,-42
1437721242667,-42
1437721242675,-46
1437721242682,-39
1437721242690,-32
1437721242698,-37
1437721242706,-32
1437721242714,-46
1437721242722,-56
1437721242730,-66
1437721242737,-83
1437721242745,-93
1437721242753,-81
1437721242761,-83
1437721242769,-88
1437721242777,-76
1437721242785,-71
1437721242793,-63
1437721242801,-61
1437721242808,-61
1437721242816,-54
1437721242824,-59
1437721242832,-56
1437721242840,-42
1437721242848,-51
1437721242856,-56
1437721242864,-49
1437721242871,-44
1437721242879,-56
1437721242887,-54
1437721242895,-49
1437721242903,-39
1437721242911,-42
1437721242919,-44
1437721242927,-34
1437721242934,-42
1437721242942,-46
1437721242950,-49
1437721242958,-49
1437721242966,-51
1437721242974,-63
1437721242982,-68
1437721242990,-56
1437721242998,-46
1437721243005,-49
1437721243013,-56
1437721243021,-61
1437721243029,-61
1437721243037,-49
1437721243045,-61
1437721243053,-61
1437721243061,-44
1437721243068,-39
1437721243076,-37
1437721243084,-51
1437721243092,-51
1437721243100,-42
1437721243108,-37
1437721243116,-37
1437721243124,-34
1437721243131,-42
1437721243139,-56
1437721243147,-49
1437721243155,-63
1437721243163,-73
1437721243171,-66
1437721243179,-76
1437721243187,-83
1437721243195,-78
1437721243202,-146
1437721243210,-261
1437721243218,-208
1437721243226,229
1437721243234,906
1437721243242,923
1437721243250,396
1437721243258,105
1437721243265,-5
1437721243273,-51
1437721243281,-93
1437721243289,-110
1437721243297,-117
1437721243305,-115
1437721243313,-112
1437721243321,-110
1437721243328,-112
1437721243336,-120
1437721243344,-117
1437721243352,-115
1437721243360,-117
1437721243368,-122
1437721243376,-115
1437721243384,-117
1437721243392,-142
1437721243399,-156
1437721243407,-139
1437721243415,-125
1437721243423,-132
1437721243431,-146
1437721243439,-149
1437721243447,-132
1437721243455,-134
1437721243462,-146
1437721243470,-132
1437721243478,-122
1437721243486,-134
1437721243494,-132
1437721243502,-139
1437721243510,-139
1437721243518,-120
1437721243525,-117
1437721243533,-117
1437721243541,-117
1437721243549,-127
1437721243557,-137
1437721243564,-154
1437721243572,-154
1437721243580,-146
1437721243588,-161
1437721243595,-161
1437721243603,-166
1437721243611,-173
1437721243619,-161
1437721243627,-161
1437721243635,-156
1437721243642,-151
1437721243650,-161
1437721243658,-149
1437721243666,-132
1437721243674,-132
1437721243682,-132
1437721243689,-132
1437721243697,-149
1437721243705,-129
1437721243713,-120
1437721243721,-132
1437721243729,-134
1437721243736,-142
1437721243744,-139
1437721243752,-132
1437721243760,-142
1437721243768,-149
1437721243776,-149
1437721243784,-161
1437721243791,-166
1437721243799,-166
1437721243807,-183
1437721243815,-183
1437721243823,-188
1437721243831,-198
1437721243838,-188
1437721243846,-188
1437721243854,-188
1437721243862,-190
1437721243870,-203
1437721243878,-200
1437721243885,-195
1437721243893,-193
1437721243901,-188
1437721243909,-188
1437721243917,-176
1437721243925,-161
1437721243932,-161
1437721243940,-168
1437721243948,-164
1437721243956,-156
1437721243964,-166
1437721243972,-176
1437721243980,-173
1437721243987,-166
1437721243995,-168
1437721244003,-171
1437721244011,-164
1437721244019,-205
1437721244027,-308
1437721244034,-300
1437721244042,24
1437721244050,671
1437721244058,874
1437721244066,427
1437721244074,73
1437721244081,-39
1437721244089,-110
1437721244097,-168
1437721244105,-186
1437721244113,-195
1437721244121,-193
1437721244128,-190
1437721244136,-198
1437721244144,-190
1437721244152,-186
1437721244160,-203
1437721244168,-210
1437721244176,-210
1437721244183,-215
1437721244191,-229
1437721244199,-225
1437721244207,-212
1437721244215,-220
1437721244223,-210
1437721244230,-190
1437721244238,-193
1437721244246,-210
1437721244254,-203
1437721244262,-183
1437721244270,-181
1437721244277,-193
1437721244285,-193
1437721244293,-188
1437721244301,-176
1437721244309,-173
1437721244317,-176
1437721244324,-168
1437721244332,-156
1437721244340,-154
1437721244348,-144
1437721244355,-142
1437721244363,-149
1437721244371,-137
1437721244379,-159
1437721244386,-146
1437721244394,-142
1437721244402,-159
1437721244410,-164
1437721244418,-173
1437721244426,-168
1437721244434,-171
1437721244441,-168
1437721244449,-166
1437721244457,-173
1437721244465,-171
1437721244473,-166
1437721244481,-171
1437721244488,-159
1437721244496,-159
1437721244504,-159
1437721244512,-139
1437721244520,-144
1437721244528,-154
1437721244536,-151
1437721244543,-149
1437721244551,-144
1437721244559,-144
1437721244567,-142
1437721244575,-144
1437721244583,-139
1437721244591,-151
1437721244598,-151
1437721244606,-142
1437721244614,-149
1437721244622,-159
1437721244630,-168
1437721244638,-159
1437721244645,-171
1437721244653,-181
1437721244661,-181
1437721244669,-178
1437721244677,-183
1437721244685,-195
1437721244693,-198
1437721244700,-205
1437721244708,-198
1437721244716,-190
1437721244724,-193
1437721244732,-188
1437721244740,-186
1437721244748,-173
1437721244755,-171
1437721244763,-164
1437721244771,-166
1437721244779,-178
1437721244787,-188
1437721244795,-186
1437721244802,-190
1437721244810,-195
1437721244818,-188
1437721244826,-183
1437721244834,-220
1437721244842,-325
1437721244850,-298
1437721244857,39
1437721244865,652
1437721244873,808
1437721244881,376
1437721244889,51
1437721244897,-66
1437721244905,-120
1437721244912,-178
1437721244920,-198
1437721244928,-205
1437721244936,-215
1437721244944,-210
1437721244952,-212
1437721244959,-225
1437721244967,-222
1437721244975,-222
1437721244983,-215
1437721244991,-212
1437721244999,-220
1437721245007,-212
1437721245014,-220
1437721245022,-222
1437721245030,-215
1437721245038,-210
1437721245046,-205
1437721245054,-195
1437721245062,-195
1437721245069,-198
1437721245077,-193
1437721245085,-195
1437721245093,-198
1437721245101,-188
1437721245109,-181
1437721245116,-173
1437721245124,-161
1437721245132,-161
1437721245140,-168
1437721245148,-149
1437721245156,-132
1437721245164,-137
1437721245172,-132
1437721245179,-127
1437721245187,-132
1437721245195,-142
1437721245203,-146
1437721245211,-149
1437721245219,-142
1437721245227,-139
1437721245235,-142
1437721245242,-134
1437721245250,-134
1437721245258,-134
1437721245266,-122
1437721245274,-125
1437721245282,-122
1437721245290,-112
1437721245298,-110
1437721245305,-103
1437721245313,-88
1437721245321,-95
1437721245329,-100
1437721245337,-88
1437721245345,-88
1437721245353,-95
1437721245360,-107
1437721245368,-107
1437721245376,-98
1437721245384,-95
1437721245392,-95
1437721245400,-83
1437721245408,-88
1437721245416,-95
1437721245423,-78
1437721245431,-81
1437721245439,-88
1437721245447,-83
1437721245455,-83
1437721245463,-83
1437721245471,-85
1437721245479,-83
1437721245486,-81
1437721245494,-83
1437721245502,-81
1437721245510,-71
1437721245518,-71
1437721245526,-51
1437721245534,-49
1437721245542,-39
1437721245549,-29
1437721245557,-34
1437721245565,-34
1437721245573,-32
1437721245581,-37
1437721245589,-37
1437721245597,-42
1437721245604,-54
1437721245612,-56
1437721245620,-59
1437721245628,-51
1437721245636,-110
1437721245644,-210
1437721245652,-149
1437721245660,278
1437721245667,967
1437721245675,984
1437721245683,464
1437721245691,168
1437721245699,49
1437721245707,2
1437721245715,-56
1437721245723,-71
1437721245730,-83
1437721245738,-88
1437721245746,-93
1437721245754,-81
1437721245762,-73
1437721245770,-73
1437721245778,-83
1437721245785,-83
1437721245793,-83
1437721245801,-85
1437721245809,-88
1437721245817,-90
1437721245825,-83
1437721245833,-83
1437721245841,-90
1437721245848,-85
1437721245856,-83
1437721245864,-83
1437721245872,-83
1437721245880,-83
1437721245888,-83
1437721245896,-83
1437721245904,-78
1437721245911,-71
1437721245919,-71
1437721245927,-71
1437721245935,-61
1437721245943,-51
1437721245951,-39
1437721245959,-39
1437721245967,-46
1437721245974,-49
1437721245982,-54
1437721245990,-66
1437721245998,-68
1437721246006,-78
1437721246014,-85
1437721246022,-83
1437721246030,-83
1437721246037,-78
1437721246045,-78
1437721246053,-83
1437721246061,-85
1437721246069,-78
1437721246077,-73
1437721246085,-88
1437721246093,-78
1437721246100,-76
1437721246108,-81
1437721246116,-66
1437721246124,-63
1437721246132,-63
1437721246140,-66
1437721246148,-61
1437721246155,-73
1437721246163,-81
1437721246171,-68
1437721246179,-73
1437721246187,-66
1437721246195,-66
1437721246203,-71
1437721246211,-68
1437721246218,-71
1437721246226,-71
1437721246234,-63
1437721246242,-66
1437721246250,-61
1437721246258,-68
1437721246266,-73
1437721246274,-63
1437721246281,-73
1437721246289,-66
1437721246297,-63
1437721246305,-59
1437721246313,-78
1437721246321,-78
1437721246329,-63
1437721246337,-71
1437721246344,-71
1437721246352,-51
1437721246360,-42
1437721246368,-37
1437721246376,-29
1437721246384,-29
1437721246392,-22
1437721246399,-27
1437721246407,-34
1437721246415,-24
1437721246423,-24
1437721246431,-44
1437721246439,-27
1437721246447,-24
1437721246455,-88
1437721246462,-178
1437721246470,-122
1437721246478,356
1437721246486,1091
1437721246494,1150
1437721246502,588
1437721246510,237
1437721246518,93
1437721246525,-5
1437721246533,-66
1437721246541,-73
1437721246549,-83
1437721246557,-78
1437721246565,-76
1437721246573,-85
1437721246580,-76
1437721246588,-85
1437721246596,-85
1437721246604,-83
1437721246612,-83
1437721246620,-73
1437721246628,-81
1437721246636,-85
1437721246643,-93
1437721246651,-85
1437721246659,-85
1437721246667,-100
1437721246675,-95
1437721246683,-93
1437721246691,-93
1437721246699,-107
1437721246706,-117
1437721246714,-110
1437721246722,-127
1437721246730,-115
1437721246738,-110
1437721246746,-117
1437721246754,-107
1437721246762,-112
1437721246770,-115
1437721246777,-105
1437721246785,-103
1437721246793,-105
1437721246801,-81
1437721246809,-85
1437721246817,-88
1437721246825,-73
1437721246833,-78
1437721246841,-73
1437721246848,-73
1437721246856,-78
1437721246864,-71
1437721246872,-56
1437721246880,-51
1437721246888,-49
1437721246896,-46
1437721246904,-49
1437721246912,-44
1437721246919,-46
1437721246927,-59
1437721246935,-51
1437721246943,-54
1437721246951,-61
1437721246959,-56
1437721246967,-49
1437721246975,-46
1437721246983,-56
1437721246990,-42
1437721246998,-37
1437721247006,-54
1437721247014,-56
1437721247022,-54
1437721247030,-49
1437721247038,-42
1437721247046,-46
1437721247054,-49
1437721247061,-49
1437721247069,-44
1437721247077,-39
1437721247085,-44
1437721247093,-44
1437721247101,-39
1437721247109,-49
1437721247117,-56
1437721247125,-46
1437721247133,-46
1437721247140,-44
1437721247148,-51
1437721247156,-49
1437721247164,-54
1437721247172,-39
1437721247180,-44
1437721247188,-49
1437721247196,-39
1437721247204,-39
1437721247211,-49
1437721247219,-51
1437721247227,-44
1437721247235,-44
1437721247243,-39
1437721247251,-29
1437721247259,-22
1437721247267,-34
1437721247275,-34
1437721247282,-32
1437721247290,-44
1437721247298,-46
1437721247306,-51
1437721247314,-66
1437721247322,-73
1437721247330,-68
1437721247338,-61
1437721247346,-78
1437721247353,-166
1437721247361,-217
1437721247369,-5
1437721247377,598
1437721247385,1084
1437721247393,791
1437721247401,313
1437721247409,117
1437721247417,24
1437721247424,-46
1437721247432,-88
1437721247440,-83
1437721247448,-93
1437721247456,-88
1437721247464,-85
1437721247472,-83
1437721247480,-71
1437721247488,-81
1437721247495,-88
1437721247503,-88
1437721247511,-81
1437721247519,-81
1437721247527,-93
1437721247534,-85
1437721247542,-81
1437721247550,-78
1437721247558,-95
1437721247565,-103
1437721247573,-103
1437721247581,-110
1437721247589,-110
1437721247597,-117
1437721247605,-117
1437721247613,-117
1437721247621,-117
1437721247628,-110
1437721247636,-103
1437721247644,-103
1437721247652,-105
1437721247660,-105
1437721247668,-105
1437721247676,-93
1437721247684,-81
1437721247691,-83
1437721247699,-78
1437721247707,-78
1437721247715,-78
1437721247723,-83
1437721247731,-85
1437721247739,-83
1437721247746,-93
1437721247754,-100
1437721247762,-110
1437721247770,-117
1437721247778,-115
1437721247786,-112
1437721247794,-105
1437721247802,-100
1437721247809,-100
1437721247817,-98
1437721247825,-95
1437721247833,-98
1437721247841,-100
1437721247849,-98
1437721247857,-93
1437721247865,-88
1437721247872,-95
1437721247880,-98
1437721247888,-95
1437721247896,-100
1437721247904,-95
1437721247912,-95
1437721247920,-88
1437721247928,-93
1437721247935,-100
1437721247943,-95
1437721247951,-88
1437721247959,-93
1437721247967,-100
1437721247975,-95
1437721247983,-100
1437721247990,-95
1437721247998,-95
1437721248006,-95
1437721248014,-93
1437721248022,-100
1437721248030,-95
1437721248038,-90
1437721248046,-83
1437721248053,-85
1437721248061,-85
1437721248069,-66
1437721248077,-78
1437721248085,-73
1437721248093,-61
1437721248101,-71
1437721248109,-61
1437721248116,-59
1437721248124,-56
1437721248132,-49
1437721248140,-44
1437721248148,-46
1437721248156,-44
1437721248164,-32
1437721248171,-37
1437721248179,-27
1437721248187,-22
1437721248195,-34
1437721248203,-37
1437721248211,-27
1437721248219,-27
1437721248227,-42
1437721248234,-49
1437721248242,-34
1437721248250,-17
1437721248258,-15
1437721248266,-7
1437721248274,2
1437721248282,5
1437721248290,-2
1437721248297,-5
1437721248305,2
1437721248313,7
1437721248321,5
1437721248329,5
1437721248337,12
1437721248345,5
1437721248352,-61
1437721248360,-166
1437721248368,-81
1437721248376,388
1437721248384,1052
1437721248392,1108
1437721248399,569
1437721248407,222
1437721248415,112
1437721248423,29
1437721248431,-27
1437721248439,-42
1437721248446,-27
1437721248454,-27
1437721248462,-34
1437721248470,-37
1437721248478,-34
1437721248486,-34
1437721248493,-34
1437721248501,-24
1437721248509,-34
1437721248517,-39
1437721248525,-27
1437721248533,-27
1437721248540,-27
1437721248548,-27
1437721248556,-29
1437721248564,-34
1437721248572,-37
1437721248580,-34
1437721248587,-37
1437721248595,-34
1437721248603,-27
1437721248611,-22
1437721248619,-20
1437721248627,-10
1437721248634,-10
1437721248642,5
1437721248650,10
1437721248658,24
1437721248666,27
1437721248674,44
1437721248681,44
1437721248689,46
1437721248697,56
1437721248705,44
1437721248713,56
1437721248721,51
1437721248728,56
1437721248736,68
1437721248744,73
1437721248752,61
1437721248760,61
1437721248767,56
1437721248775,66
1437721248783,61
1437721248791,56
1437721248799,59
1437721248807,54
1437721248814,61
1437721248822,71
1437721248830,71
1437721248838,71
1437721248846,90
1437721248854,93
1437721248861,88
1437721248869,98
1437721248877,88
1437721248885,88
1437721248893,90
1437721248901,93
1437721248908,103
1437721248916,95
1437721248924,90
1437721248932,90
1437721248940,88
1437721248948,88
1437721248955,83
1437721248963,90
1437721248971,85
1437721248979,88
1437721248987,95
1437721248995,100
1437721249002,95
1437721249010,93
1437721249018,100
1437721249026,103
1437721249034,98
1437721249042,93
1437721249049,93
1437721249057,98
1437721249065,100
1437721249073,98
1437721249081,95
1437721249089,90
1437721249096,83
1437721249104,78
1437721249112,76
1437721249120,88
1437721249128,88
1437721249136,85
1437721249143,76
1437721249151,85
1437721249159,83
1437721249167,73
1437721249175,81
1437721249183,83
1437721249190,83
1437721249198,100
1437721249206,110
1437721249214,115
1437721249222,105
1437721249230,90
1437721249237,88
1437721249245,78
1437721249253,81
1437721249261,76
1437721249269,78
1437721249277,81
1437721249284,88
1437721249292,59
1437721249300,-59
1437721249308,-73
1437721249316,278
1437721249324,1030
1437721249331,1418
1437721249339,950
1437721249347,437
1437721249355,251
1437721249363,127
1437721249371,66
1437721249378,49
1437721249386,27
1437721249394,34
1437721249402,42
1437721249410,49
1437721249418,54
1437721249425,51
1437721249433,46
1437721249441,44
1437721249449,44
1437721249457,34
1437721249465,34
1437721249472,27
1437721249480,32
1437721249488,29
1437721249496,20
1437721249504,15
1437721249512,27
1437721249519,20
1437721249527,10
1437721249535,12
1437721249543,5
1437721249551,0
1437721249558,-5
1437721249566,12
1437721249574,27
1437721249582,12
1437721249590,7
1437721249598,24
1437721249605,17
1437721249613,24
1437721249621,44
1437721249629,42
1437721249637,54
1437721249645,73
1437721249652,76
1437721249660,78
1437721249668,68
1437721249676,73
1437721249684,71
1437721249692,63
1437721249699,71
1437721249707,76
1437721249715,73
1437721249723,71
1437721249731,81
1437721249739,76
1437721249746,85
1437721249754,78
1437721249762,73
1437721249770,83
1437721249778,88
1437721249786,90
1437721249793,88
1437721249801,81
1437721249809,81
1437721249817,95
1437721249825,78
1437721249833,68
1437721249840,83
1437721249848,78
1437721249856,59
1437721249864,61
1437721249872,73
1437721249880,76
1437721249887,66
1437721249895,63
1437721249903,68
1437721249911,61
1437721249919,59
1437721249927,68
1437721249935,68
1437721249943,63
1437721249950,66
1437721249958,66
1437721249966,71
1437721249974,73
1437721249982,61
1437721249990,61
1437721249998,68
1437721250006,73
1437721250014,66
1437721250021,54
1437721250029,61
1437721250037,61
1437721250045,73
1437721250053,61
1437721250061,54
1437721250069,66
1437721250077,63
1437721250085,66
1437721250092,61
1437721250100,56
1437721250108,71
1437721250116,78
1437721250124,73
1437721250132,63
1437721250140,68
1437721250148,71
1437721250156,76
1437721250163,88
1437721250171,78
1437721250179,68
1437721250187,81
1437721250195,66
1437721250203,56
1437721250211,49
1437721250219,61
1437721250227,83
1437721250234,71
1437721250242,66
1437721250250,66
1437721250258,66
1437721250266,51
1437721250274,56
1437721250282,56
1437721250290,44
1437721250298,49
1437721250306,42
1437721250313,39
1437721250321,29
1437721250329,-59
1437721250337,-90
1437721250345,144
1437721250353,784
1437721250361,1265
1437721250369,955
1437721250377,425
1437721250384,215
1437721250392,122
1437721250400,51
1437721250408,34
1437721250416,17
1437721250424,15
1437721250432,27
1437721250440,34
1437721250448,15
1437721250455,20
1437721250463,27
1437721250471,10
1437721250479,10
1437721250487,29
1437721250495,17
1437721250503,17
1437721250511,20
1437721250519,22
1437721250526,20
1437721250534,12
1437721250542,20
1437721250550,22
1437721250558,24
1437721250566,15
1437721250574,5
1437721250582,7
1437721250590,0
1437721250597,0
1437721250605,5
1437721250613,10
1437721250621,15
1437721250629,24
1437721250637,22
1437721250645,15
1437721250653,32
1437721250661,34
1437721250668,39
1437721250676,42
1437721250684,56
1437721250692,56
1437721250700,56
1437721250708,61
1437721250716,56
1437721250724,59
1437721250732,63
1437721250739,59
1437721250747,51
1437721250755,54
1437721250763,54
1437721250771,54
1437721250779,44
1437721250787,49
1437721250794,56
1437721250802,54
1437721250810,59
1437721250818,59
1437721250826,68
1437721250834,71
1437721250842,66
1437721250849,66
1437721250857,59
1437721250865,56
1437721250873,49
1437721250881,49
1437721250889,49
1437721250897,51
1437721250905,61
1437721250912,59
1437721250920,63
1437721250928,68
1437721250936,73
1437721250944,71
1437721250952,73
1437721250960,73
1437721250967,66
1437721250975,68
1437721250983,73
1437721250991,71
1437721250999,61
1437721251007,61
1437721251015,61
1437721251022,63
1437721251030,73
1437721251038,66
1437721251046,66
1437721251054,59
1437721251062,61
1437721251070,66
1437721251077,61
1437721251085,61
1437721251093,54
1437721251101,63
1437721251109,66
1437721251117,61
1437721251125,61
1437721251132,54
1437721251140,49
1437721251148,59
1437721251156,46
1437721251164,39
1437721251172,44
1437721251180,42
1437721251187,34
1437721251195,32
1437721251203,39
1437721251211,29
1437721251219,27
1437721251227,22
1437721251235,12
1437721251242,12
1437721251250,20
1437721251258,27
1437721251266,22
1437721251274,27
1437721251282,27
1437721251290,49
1437721251298,54
1437721251305,56
1437721251313,66
1437721251321,63
1437721251329,61
1437721251337,59
1437721251345,61
1437721251353,59
1437721251360,56
1437721251368,56
1437721251376,63
1437721251384,61
1437721251392,2
1437721251400,-88
1437721251408,7
1437721251415,493
1437721251423,1135
1437721251431,1135
1437721251439,603
1437721251447,278
1437721251455,176
1437721251463,110
1437721251470,59
1437721251478,46
1437721251486,42
1437721251494,44
1437721251502,54
1437721251510,54
1437721251518,56
1437721251526,56
1437721251533,49
1437721251541,51
1437721251549,56
1437721251557,56
1437721251565,46
1437721251573,54
1437721251581,61
1437721251589,63
1437721251596,66
1437721251604,59
1437721251612,61
1437721251620,44
1437721251628,42
1437721251636,46
1437721251644,49
1437721251652,44
1437721251659,54
1437721251667,61
1437721251675,59
1437721251683,54
1437721251691,59
1437721251699,61
1437721251707,61
1437721251714,76
1437721251722,85
1437721251730,90
1437721251738,98
1437721251746,105
1437721251754,115
1437721251762,107
1437721251770,112
1437721251777,117
1437721251785,120
1437721251793,110
1437721251801,103
1437721251809,117
1437721251817,117
1437721251825,122
1437721251833,127
1437721251840,125
1437721251848,122
1437721251856,122
1437721251864,117
1437721251872,122
1437721251880,137
1437721251888,129
